33419 3249 6210 12208 
5715 11208 21376 24311 
21233 24239 29132 30411 
29172 31054 33317 33517 
33178 34332 35338 35391 
35219 35758 36391 35997 
36277 36865 36926 36675 
36816 37035 37173 36744 
37105 38919 38078 38940 
38764 38542 37546 37675 
38267 36220 37392 35322 
38048 32180 36525 31817 
35449 32339 34678 32154 
35792 34657 35890 34664 
34447 33697 34568 33888 
33918 33212 33793 33178 
33405 36965 33128 32883 
32641 30615 32717 32841 
32808 31802 32868 30611 
30800 29951 30384 31228 
31212 30945 31188 33760 
33935 33920 34190 33484 
33470 33438 33816 33396 
33380 33362 33372 32926 
32901 36896 32881 32496 
32492 30828 32836 32503 
32481 31770 32510 30658 
30757 29931 30574 31130 
31202 30954 31219 34049 
33925 33949 34177 33467 
33472 33457 33533 33389 
33394 33322 33386 32896 
32903 36901 32880 32776 
32468 30845 32820 32488 
32483 31786 32799 30620 
30437 29928 30356 31181 
31494 30942 31173 34071 
33960 33956 34197 33444 
33467 33438 33525 33390 
33377 33350 33375 32905 
32899 36887 32859 32769 
32468 30842 32821 32511 
32486 31768 32802 30826 
30778 29938 30342 31185 
31193 30944 31171 33816 
34163 33930 34428 33830 
33459 33446 33503 33179 
33397 33332 33330 32941 
33123 36903 32783 32804 
32444 30831 32175 32789 
32414 31749 31122 30653 
30796 29905 30758 31150 
31191 30957 29709 33738 
32452 33379 28289 33638 
30682 31225 28725 33351 
30101 30329 28999 32842 
29868 28892 27921 30949 
29031 29023 28182 29683 
28877 28609 27875 30013 
28948 28301 27812 28856 
28693 28246 27966 28739 
28336 28176 28010 28584 
28468 27797 27802 28786 
28089 27954 27848 28724 
28226 26629 26993 27494 
26611 26754 27274 27946 
27095 27195 27734 27932 
27489 27033 27583 27961 
27280 27054 27925 27974 
27352 27452 27834 27794 
27690 27379 28285 27833 
27719 27905 28507 27901 
27761 27455 27974 27149 
26315 28698 28632 27944 
27393 29522 29448 28238 
27811 29429 29596 28426 
28954 29151 30498 28107 
29873 29031 31466 28103 
31294 28967 33086 28101 
31929 29383 33785 28426 
32552 31458 34450 27659 
31706 33164 34020 28569 
31294 34058 34063 30328 
30650 33603 33783 32064 
31317 32483 33751 33163 
32207 32325 33821 34059 
33595 32776 33592 33773 
34413 33431 33383 33565 
34536 35141 33015 32850 
35123 34986 33133 32527 
34239 34733 33128 32569 
33738 34238 32953 32662 
33422 34072 33175 33235 
33654 33732 33851 34124 
33868 33951 34029 34456 
34059 34359 34370 34935 
33860 34067 33656 34849 
32716 32742 32248 33854 
31944 32117 31436 33107 
31475 31387 31184 32443 
31473 31361 31451 32599 
32064 31695 32287 32458 
32551 32191 32644 32683 
32735 32666 33368 32916 
33008 33379 33635 33257 
33358 33286 33023 33171 
33123 33150 32738 33179 
33037 32898 32709 33591 
32912 33386 32961 33687 
33237 33480 33553 34031 
33527 34051 33852 34600 
34058 34337 34106 34894 
33993 34769 34661 35946 
34841 34779 34606 35948 
34520 35125 34299 35783 
34475 34815 34209 35835 
34474 35112 34194 36144 
34821 34960 34297 36132 
34753 35412 34847 35977 
35366 35462 35042 36385 
35511 36792 36702 37345 
37179 36831 36521 37224 
36828 37209 36941 37203 
37183 37055 36795 36838 
37033 37453 37144 36778 
37080 37262 37121 36924 
37084 37280 37165 36916 
37408 37330 37205 36947 
37483 38576 38459 37853 
38541 38115 37760 37665 
38016 38211 37553 38534 
37838 39048 37375 37168 
37836 36821 37328 36577 
37570 37163 36882 35412 
37970 35330 36621 34041 
37533 33936 36627 33556 
35882 37222 35943 32647 
33948 31012 34259 32805 
33208 31852 33636 30618 
30859 30230 31075 31489 
31401 30966 31429 33818 
33991 33946 34296 33805 
33532 33429 33865 33191 
33160 33348 33393 32947 
32900 36907 32640 32774 
32499 30828 32840 32505 
32479 31787 32776 30661 
30759 29921 30576 31156 
31201 30948 31216 33763 
34162 33954 34182 33448 
33479 33430 33805 33396 
33405 33339 33367 32929 
33150 36908 32888 32769 
32482 30827 32844 32493 
32490 31787 32504 30592 
30735 29931 30348 31211 
31495 30973 31207 33789 
33922 34171 34192 33448 
33477 33444 33519 33398 
33369 33366 33382 32896 
32898 36890 32866 32505 
32471 30840 32829 32776 
32488 31767 32792 30624 
30766 29942 30337 31154 
31188 30939 31179 34074 
33932 33965 34193 33458 
33479 33419 33796 33383 
33389 33341 33370 32914 
33145 36896 32847 32769 
32491 30827 32792 32485 
32471 31792 32483 30829 
30735 29925 30520 31160 
31212 31239 31216 33852 
34131 34158 33003 33825 
33631 33580 30607 33168 
33070 32906 29681 32998 
32270 32307 28354 32482 
29889 30103 28696 32501 
29600 29754 28614 30719 
29834 29658 28713 31346 
29546 29195 28501 30968 
28846 28746 28123 29570 
28823 28382 28250 29131 
28589 28426 27864 28889 
28374 26776 26572 27917 
27260 27068 27063 28278 
27657 27440 27300 28238 
27731 27475 27689 28226 
27717 27413 27772 28197 
27767 27475 27907 28230 
27560 27279 28003 28173 
27545 27309 27816 28162 
27768 26403 26800 26904 
26452 26826 27746 27279 
26800 27656 28205 27707 
27029 28038 28374 27973 
27503 29043 28851 28214 
27521 29352 29557 28445 
28167 29427 30070 28525 
28696 29177 30979 28509 
29407 27868 32436 27261 
30930 28673 33490 27581 
32380 29862 34075 27801 
32422 32055 33839 28498 
31942 33562 33462 29288 
31220 34150 33903 30743 
31051 33494 34108 32321 
31348 32647 34075 33549 
32307 31962 33865 34273 
33752 32665 33168 34057 
34627 33708 32950 33326 
34515 34664 32897 32451 
34593 34793 32978 32354 
33970 34705 33315 32379 
33825 34619 33159 32423 
33553 33936 33549 32992 
33262 34362 34030 34611 
34139 34427 34399 34751 
34058 33952 33712 34799 
33264 33227 33035 34431 
32496 32583 32086 33625 
31897 31696 31375 32701 
31630 31448 31455 32544 
31712 31812 31883 32162 
32284 31976 32849 32416 
32848 32804 33021 33061 
32945 32918 33153 33359 
33022 33009 32932 33164 
33121 33136 32883 33401 
32698 32748 32451 33329 
32650 33049 32824 33171 
33049 33300 32902 33451 
33314 33764 33714 34617 
33787 34339 33983 34875 
33969 34585 34395 35001 
34395 34489 34205 35249 
34561 34941 34263 35525 
34449 35074 34242 35924 
34508 35106 34208 35715 
34551 35125 34231 35777 
34888 35955 35042 37190 
35923 35793 35603 36767 
35828 36375 35740 36833 
36062 36340 36062 37190 
36625 36888 36653 37059 
36880 36850 36582 37010 
36743 37198 36936 37241 
37131 37068 36758 37185 
37234 38328 38232 38049 
38311 38221 37613 37728 
37842 37815 37525 37656 
37974 37997 37710 37678 
37623 37818 37754 37272 
37899 37919 37323 37749 
37708 37766 37451 37623 
37759 38408 37074 35753 
37545 40281 38444 34025 
39505 32611 37470 33540 
36497 32618 35622 30953 
32802 30505 32029 31517 
32178 31125 32261 34087 
34686 34022 34854 33535 
33759 33795 33785 33165 
33556 33379 33252 32929 
32959 36926 32688 32781 
32773 30839 32862 32509 
32497 31787 32782 30594 
30782 29938 30370 31222 
31215 30969 31198 33806 
34157 33923 34428 33805 
33473 33430 33535 33187 
33372 33346 33367 32950 
32910 36905 32879 32774 
32504 30835 32833 32502 
32484 31779 32769 30654 
30779 29938 30347 31157 
31177 30941 31194 33781 
34159 33934 34193 33442 
33491 33423 33532 33156 
33370 33352 33362 32898 
32898 36909 32887 32510 
32452 30833 32833 32502 
32475 31788 32776 30626 
30746 29922 30576 31168 
31490 30966 31218 33782 
33943 33934 34430 33471 
33470 33449 33802 33382 
33397 33326 33382 32904 
33147 36904 32869 32783 
32482 30823 32819 32505 
32484 31781 32776 30610 
30757 29942 30362 31207 
31215 30958 31183 33782 
33930 33929 34420 33438 
33471 33430 33430 33155 
33344 33364 33095 33149 
33074 36897 31278 32770 
32519 30440 29582 32475 
32070 31217 29076 30634 
30993 30310 29271 31185 
31085 31007 29001 33608 
29555 29758 28642 33208 
29376 29323 28546 31725 
29521 29060 28407 30287 
29166 27825 27071 28768 
27831 27835 27314 28579 
28211 27934 27672 28552 
28229 27915 27523 28689 
27887 27527 27552 28332 
27815 27743 27911 28339 
27822 27757 27792 28530 
28025 27694 27852 28476 
27968 26439 26763 27207 
26365 26905 27314 27722 
27157 27180 27555 27749 
27097 27132 28021 27620 
27430 27356 28253 27978 
27306 28015 28321 27896 
27710 28341 28940 28089 
27582 29282 29107 28317 
27831 28885 28956 27664 
27649 29294 29556 28181 
28810 29048 30525 28192 
30489 28552 32032 28191 
31403 28647 33176 28216 
32296 30015 34099 28109 
32310 31818 34095 28289 
31851 33356 33864 28997 
31268 34222 33944 30214 
30564 33815 33978 32279 
31584 32859 34104 33824 
32673 32199 33502 34179 
34077 32737 33197 33959 
34497 33899 33013 33205 
34846 34584 32970 32400 
34608 34902 33011 31874 
33967 34966 33230 32039 
34061 34603 33247 32775 
33518 33936 33441 33457 
33839 34174 34080 34648 
34114 34402 34339 35030 
34105 34035 33724 34989 
33592 33639 33120 34618 
32862 32771 31990 33500 
31911 31474 31135 32645 
31521 31369 31364 32617 
31784 31811 32070 32622 
31934 31971 32628 32871 
32416 32440 33080 32916 
33050 33055 33290 33323 
32909 32908 32962 33308 
33098 33069 32756 32918 
32688 32736 32666 33287 
32745 33129 33111 33264 
33012 33217 33235 33718 
33616 33872 33830 34185 
33694 33985 34112 34859 
33973 34236 33981 35117 
34354 34651 34037 35363 
34261 34541 34384 35313 
34621 35245 34882 36304 
34961 35368 34439 36024 
34777 35062 34664 36067 
35073 35422 34852 36391 
35336 35456 34981 36620 
35474 35839 35686 36528 
35803 36375 35781 36909 
36369 36640 36367 36746 
36641 37960 37741 38266 
37796 37534 37312 37506 
37534 37551 37492 37290 
37642 37701 37416 37404 
37663 37526 37285 37435 
37691 37555 37320 37079 
37648 37524 37300 37102 
37676 37736 37313 37428 
37705 38818 38707 39328 
38981 38995 38155 37243 
38494 38416 37611 33288 
39188 33897 37372 32635 
35993 33044 35115 34603 
36255 34812 36201 33703 
34923 34155 34449 33269 
33723 33564 33871 32971 
33543 36836 32949 32863 
32683 30679 33028 32845 
32861 31810 32643 30651 
30827 30222 30394 31173 
31192 30948 31210 34087 
33944 33981 34223 33446 
33480 33423 33812 33395 
33393 33358 33367 32917 
32905 36894 32885 32497 
32505 30826 32835 32471 
32476 31784 32777 30621 
30728 29905 30559 31153 
31205 31236 31221 33852 
34160 34160 34179 33808 
33478 33433 33511 33204 
33386 33358 33379 32928 
32917 36911 32869 32784 
32476 30839 32842 32773 
32499 31792 32790 30607 
30739 29944 30355 31198 
31204 30917 31161 33743 
33931 34175 34194 33472 
33466 33453 33534 33404 
33372 33345 33385 32910 
32920 36908 32855 32502 
32458 30847 32824 32779 
32496 31767 32802 30606 
30776 29934 30345 31174 
31176 30929 31169 34065 
33922 33931 34187 33449 
33480 33443 33511 33388 
33387 33358 33328 32918 
33141 36907 32825 32507 
32467 30847 32386 32503 
32435 31777 32069 30636 
30766 29895 30749 31161 
31222 30940 30463 34051 
33154 33866 28599 33436 
31779 32626 29000 33334 
30553 30704 28808 33143 
29937 29124 28184 32102 
28868 29225 28127 30593 
28891 28940 28278 30786 
29038 28714 27881 28837 
28761 28086 27974 28135 
28543 27860 27645 28288 
28419 27993 27910 28367 
28285 27639 27913 28344 
28206 26319 26714 27107 
26573 26952 27215 27543 
27226 26810 27516 27642 
27456 27016 27742 27954 
27277 27031 27560 27938 
27316 27397 27967 28021 
27669 27323 28183 27812 
27684 27543 28152 27888 
27701 27209 27575 26833 
26489 28109 28763 27623 
27259 29056 29138 28208 
27589 29426 29772 28438 
28696 29513 29945 28478 
29813 29191 30926 28492 
31059 28954 32535 28422 
32007 28887 33651 28144 
32154 30522 34287 27109 
31843 32618 34019 28237 
31281 33848 33979 29154 
30636 33774 34357 31328 
31332 33397 34350 33132 
32173 32487 33781 33938 
33270 32781 33616 34424 
34338 33160 33018 33742 
34518 34489 32927 33097 
34996 34711 32911 32515 
34656 34828 32933 32356 
34119 34429 33295 32428 
33490 34060 33199 33297 
33607 33898 33487 33760 
33503 34088 34167 34435 
33754 34376 34407 35083 
33767 34212 33777 35043 
33373 33382 32503 34121 
32136 31988 31474 33073 
31457 31547 31253 32134 
31221 31280 31328 32080 
31417 31206 31842 32026 
32113 31708 32535 31970 
32420 32574 32917 32521 
33104 33296 33484 32652 
33183 33375 33191 32735 
32976 32989 33100 33037 
33072 33135 32658 32934 
33114 33004 33060 33266 
33347 33550 33398 33900 
33654 33884 33510 34018 
33711 33977 34106 34668 
33994 34796 34835 35527 
34721 35129 34823 35553 
34690 35004 34882 35831 
34772 35066 34874 36222 
34811 35410 34835 36368 
35145 35455 34873 36412 
34997 35589 34802 36307 
35276 35573 35417 36493 
35856 37129 36517 37861 
37002 37122 36573 37718 
37145 37245 36987 37719 
37232 37072 36856 37363 
37078 37473 37180 37298 
37422 37327 37181 37411 
37407 37291 37135 36998 
37420 37335 37121 37144 
37447 38766 38056 38226 
38756 38086 37899 37705 
38023 38195 37663 38174 
38003 38845 37430 37562 
37771 37429 37435 36832 
37735 37235 36712 35659 
37935 35452 36268 34234 
37466 34014 36460 33466 
35640 37057 35516 32734 
34093 31032 34211 32856 
33394 31630 33603 30643 
31088 30233 31051 31515 
31401 31233 31442 33786 
34006 33936 34567 33448 
33515 33450 33829 33390 
33397 33346 33157 32904 
32923 36913 32886 32770 
32477 30840 32835 32786 
32487 31766 32806 30626 
30780 29948 30591 31165 
31190 30941 31181 34065 
34171 33951 34208 33439 
33483 33431 33800 33397 
33372 33353 33363 32912 
32908 36899 32888 32499 
32486 30824 32812 32769 
32475 31771 32784 30638 
30731 29912 30554 31138 
31199 31244 31499 33751 
33922 33928 34420 33464 
33470 33423 33798 33398 
33394 33347 33363 32920 
33150 36911 32640 32769 
32485 30826 32837 32494 
32492 31788 32770 30600 
30728 29910 30590 31198 
31208 31234 31225 33754 
33935 34170 34413 33480 
33483 33430 33535 33404 
33384 33373 33350 32921 
32904 36905 32861 32495 
32493 30838 32795 32499 
32483 31781 32483 30629 
30749 29910 30565 31168 
31213 30958 31195 34049 
34151 33941 33247 33470 
33622 33636 30969 33350 
32917 32939 30078 32947 
32232 33708 28798 32509 
30546 30509 28945 32459 
29953 29753 29044 30710 
30118 30531 28959 31140 
29352 29195 28690 31997 
28900 28734 28362 29908 
28899 28700 28420 29326 
28935 28499 28253 29263 
28721 26877 26903 27986 
27055 27125 27121 28246 
27364 27396 27456 28281 
27524 27271 27703 28276 
27523 27459 27755 28189 
27739 27437 27574 28191 
27758 27462 27937 28188 
27541 27266 27979 27900 
27534 26063 26996 26995 
26467 26756 27333 27101 
26967 27128 28018 27663 
27224 27917 28151 27638 
27417 28324 28609 27846 
27390 29262 29101 28091 
27967 29313 29587 28493 
28484 29451 30351 28497 
29307 28175 32109 27063 
30568 28485 33366 27677 
31726 29327 34049 27924 
32567 31566 34129 28207 
32347 33306 34073 28778 
31757 34157 34117 29863 
31334 33734 33954 31644 
31556 32949 34097 33165 
32379 32168 33534 34520 
33849 32668 33299 34382 
34195 33823 33074 33545 
34563 34272 33028 32455 
34386 34872 33141 31926 
34087 34543 33284 31925 
33798 34185 33178 32600 
33565 33788 33540 33012 
33231 34096 34109 34465 
33759 33966 34331 35035 
34127 34016 33923 35443 
33514 33809 33374 34709 
33058 32685 32152 33787 
32327 31892 31457 33144 
31624 31463 31568 32535 
31846 31464 31637 32260 
32109 32062 32572 32365 
32386 32396 33080 32786 
33073 33075 33322 33134 
32981 32981 32969 33291 
32903 33141 32661 32999 
32699 32709 32461 33140 
32884 32658 32780 33112 
32711 33106 33106 33335 
32985 33513 33889 34112 
33917 34092 34155 34260 
33929 34393 34350 34872 
34307 34572 34341 35143 
34199 34471 34379 35435 
34590 34877 34396 35323 
34657 34917 34392 35677 
34453 34693 34383 35493 
34515 35612 34758 36675 
35309 35668 35196 36662 
35519 35722 35653 36548 
35743 35998 35956 36740 
36082 36337 36358 37198 
36619 36589 36325 36993 
36548 36741 36732 37063 
36944 37124 36584 37063 
36847 38114 37772 38423 
38092 37777 37661 37958 
37834 37949 37678 37682 
37579 37557 37273 37331 
37555 37893 37267 37478 
37548 37563 37491 37401 
37735 37545 37053 37440 
37345 37527 36980 37710 
37323 40325 37643 35832 
38599 35554 36596 34291 
38446 34326 36661 31450 
34597 31194 34506 31796 
32999 31801 33557 33961 
35140 34233 35232 33535 
34147 33871 34316 33164 
33409 33400 33437 32930 
33282 36950 32759 32776 
32814 30594 32647 32771 
32770 31789 32849 30593 
30800 29949 30344 31189 
31189 30923 31190 34070 
34175 33933 34205 33434 
33490 33445 33794 33403 
33366 33367 33379 32901 
32901 36904 32884 32503 
32487 30815 32839 32508 
32474 31786 32779 30632 
30748 29918 30559 31176 
31220 31235 31490 33787 
33940 33948 34176 33453 
33460 33431 33806 33377 
33395 33327 33374 32917 
33136 36908 32862 32500 
32451 30847 32828 32775 
32486 31781 32809 30828 
30722 29930 30336 31210 
31507 30933 31170 33726 
33926 34169 34418 33483 
33481 33437 33813 33152 
33379 33348 33361 32921 
32903 36917 32890 32505 
32496 30826 32838 32510 
32472 31771 32779 30645 
30737 29928 30571 31134 
31211 30959 31212 33775 
33927 33942 34201 33454 
33477 33451 33467 33407 
33348 33337 33298 32906 
33087 36909 32150 32787 
32248 30439 31261 32494 
31678 31175 29558 30598 
30693 30307 29401 31174 
30847 30673 28964 33521 
29220 29331 28729 33283 
29178 29518 28643 31726 
29137 29077 28764 30089 
29113 27891 27463 28956 
27862 28181 27731 28660 
27889 27779 27692 28640 
28210 27928 27546 28747 
27860 27550 27540 28393 
27812 27767 27913 28396 
27806 27774 28004 28331 
27776 27752 27828 28504 
27977 26489 27001 27067 
26700 26961 27271 27390 
26798 27152 27670 27552 
27083 27103 27920 27619 
27457 27501 27791 27909 
27514 27533 28258 28009 
27361 28213 28297 27882 
27740 28610 28965 28084 
28025 28601 28312 27434 
27916 29248 28910 27908 
29356 28816 29630 27881 
30987 28948 31319 27888 
31782 28887 32659 27878 
32049 30504 33750 28239 
31647 32335 34394 28444 
31529 33447 34306 28935 
30890 34430 34573 30168 
31070 33567 34419 32602 
32315 32462 34145 33787 
33268 32450 33434 34566 
34402 33192 33357 33960 
34531 34010 32926 33353 
34433 34492 32900 32514 
34327 34558 32939 32029 
33684 34528 33376 32127 
33508 34131 33381 32727 
33546 33475 33260 33680 
33609 33528 33850 34839 
33678 34163 33992 35233 
34134 34311 34152 35304 
33824 33891 33186 34710 
33127 33065 32223 33716 
32354 31866 31142 32813 
31528 31578 31207 32284 
31381 31407 31850 31912 
32007 32043 32210 32133 
32524 32595 33041 32776 
32739 33057 33350 33065 
32990 33014 33384 32920 
32970 32989 32898 33103 
33076 32897 32666 33143 
33030 32910 32757 33350 
32963 33191 33356 33470 
33542 33798 33476 33929 
33915 33931 34070 34652 
33970 34244 33988 34697 
34177 34672 34334 35153 
34298 34542 34383 35346 
34442 35241 34895 35993 
35051 35362 34446 36113 
34948 35333 34645 35834 
35152 35375 34488 36207 
35361 35629 35098 36234 
35467 35724 35278 36693 
35785 36045 35939 36924 
36372 36331 36061 37150 
36676 37944 37677 38419 
37766 37735 37461 37792 
37605 37750 37500 37573 
37682 37715 37420 37695 
37698 37529 37487 37650 
37715 37541 37502 37298 
37667 37520 37266 37481 
37675 37513 37272 37293 
37708 39022 38678 39072 
38915 38765 37796 37874 
38362 38546 37533 33877 
38856 34311 37835 32889 
35808 32960 35598 34504 
36441 35182 36049 34065 
34901 33963 34902 33571 
33754 33583 33752 32995 
33206 36785 32964 32824 
32640 30639 32758 32772 
32830 31806 32646 30634 
30770 29913 30371 31200 
31512 31233 31492 33746 
34163 33957 34193 33450 
33486 33437 33793 33405 
33395 33365 33391 32918 
32904 36903 32880 32778 
32492 30811 32839 32775 
32465 31797 32773 30601 
30753 29902 30570 31188 
31225 30966 31231 33773 
33932 33939 34429 33461 
33457 33450 33794 33374 
33390 33332 33373 32920 
33148 36911 32868 32506 
32503 30839 32833 32771 
32478 31781 32787 30602 
30761 29940 30349 31195 
31187 30937 31172 34069 
33930 33931 34203 33425 
33470 33452 33521 33404 
33374 33339 33373 33150 
32900 36903 32865 32786 
32482 30820 32838 32491 
32476 31785 32510 30621 
30746 29925 30590 31162 
31193 30967 31493 33759 
34167 34174 34421 33452 
33477 33447 33485 33396 
33404 33331 33348 32915 
33147 36912 32839 32780 
32454 30838 32447 32497 
32468 31775 32365 30621 
30752 29921 30730 31197 
31217 30959 31021 33735 
33265 33720 28923 33473 
31656 33026 28897 33394 
30556 31600 28876 33145 
29936 29339 28095 32381 
29239 29492 28308 31502 
28902 28924 28149 31015 
28910 28963 28088 30029 
28645 28316 28171 28119 
28685 28084 27847 28376 
28308 28197 27798 28760 
28159 27810 27798 28727 
28279 26735 26914 27390 
26993 26865 27448 27922 
27017 27231 27360 27793 
27515 27083 27605 27819 
27304 27095 27911 27786 
27367 27419 27815 27866 
27688 27311 28198 27884 
27739 27746 28431 28177 
27730 26771 27570 27183 
26323 27845 28710 27570 
27156 28814 29066 28056 
27634 29429 29708 28361 
28742 29424 29753 28384 
29592 29078 29996 28350 
30677 28966 31031 28517 
31470 28574 32574 28457 
32127 28659 34358 27028 
31773 30948 34387 27595 
31354 33131 33742 28467 
30601 33754 33885 29325 
30818 33905 34102 31170 
31362 33142 34162 33107 
32839 32589 33772 34157 
33702 32856 33454 34179 
34456 34143 33170 34078 
35306 34459 32966 32926 
35077 34929 32913 32610 
34194 34480 32970 32540 
33714 34400 33389 32654 
33424 34072 33619 33571 
33423 34095 34071 34357 
33700 34357 34199 34762 
34112 34449 34565 35482 
33852 33861 33196 34865 
32685 32839 32311 33890 
31949 32063 31398 33106 
31766 31386 31159 32610 
31473 31385 31401 32156 
31703 31640 31903 32189 
32365 32325 32479 32634 
32501 32876 33316 32662 
33114 33028 32980 32697 
33049 32713 32735 32661 
32680 32878 32855 32679 
32731 32748 32720 32904 
32980 33344 33332 33540 
33583 33510 33492 33709 
33686 34169 34133 34403 
33980 34782 34868 35217 
34942 35085 34552 35599 
34918 34950 34532 35479 
34928 34952 34455 35885 
34713 35006 34646 35757 
34759 35016 34611 35788 
35080 35345 34499 36168 
35039 35284 35108 36371 
35631 36505 36450 37668 
36942 36568 36313 37273 
36781 36765 36873 37490 
36815 37154 36951 37470 
37206 37079 36848 37486 
37070 37425 37139 37113 
37071 37451 37184 37076 
37386 37253 37228 37080 
37461 38754 38497 38465 
38730 38089 37825 37771 
38408 38157 37772 38029 
37852 38408 37573 38284 
37882 38633 37935 37303 
37961 37824 37389 35945 
37880 36199 37499 34582 
37842 34442 36814 33535 
35753 37277 35354 32727 
33983 30891 34145 32882 
33234 31679 33197 30644 
30872 30269 30978 31504 
31399 31241 31373 33745 
34010 33942 34254 33479 
33516 33435 33848 33156 
33400 33360 33387 32904 
32917 36915 32886 32511 
32496 30824 32857 32771 
32492 31781 32772 30650 
30756 29920 30574 31148 
31187 30936 31220 33778 
34175 33923 34203 33452 
33474 33464 33534 33393 
33384 33347 33375 32908 
32911 36918 32858 32777 
32493 30832 32822 32503 
32494 31774 32800 30609 
30769 29951 30336 31167 
31168 30922 31183 34066 
33922 33937 34190 33444 
33483 33430 33793 33380 
33380 33357 33368 32917 
33136 36916 32864 32509 
32488 30808 32846 32504 
32472 31804 32781 30626 
30759 29895 30574 31168 
31492 31234 31489 34051 
33937 33955 34182 33462 
33451 33439 33799 33387 
33395 33332 33369 32908 
33142 36911 32843 32504 
32496 30835 32815 32776 
32483 31780 32508 30822 
30750 29919 30337 31210 
31213 30930 31205 33739 
34161 33935 33922 33479 
33655 33423 32856 33153 
33006 33291 30688 32899 
32830 36180 28828 32787 
31200 30173 28848 32479 
30113 30214 29037 30689 
31082 30410 28864 31104 
29747 29584 28611 33281 
28803 28476 28406 31237 
29024 28301 28456 29681 
28801 28318 28051 29473 
28578 27023 26986 28256 
27283 27293 27408 28449 
27711 27326 27504 28460 
27626 27369 27713 28433 
27599 27322 27774 28147 
27590 27318 27644 28142 
27628 27358 27992 28087 
27627 27380 27832 28275 
27584 26443 26833 27137 
26344 26840 27547 27322 
26993 27309 28222 27609 
27110 27899 28765 27886 
27285 28610 29251 28459 
27581 29410 29717 28605 
28262 29830 29587 29041 
28738 29982 29728 29009 
29309 28350 28831 27591 
29780 28497 30590 27790 
31093 28148 32514 27898 
31724 28562 33818 28212 
31966 30224 33936 28043 
31624 31888 33824 28527 
31306 33560 33552 29017 
30827 34125 33446 30267 
30824 33488 34343 32620 
31858 32820 33943 34079 
33375 32622 33675 34684 
34209 32931 33601 34279 
34798 34058 33378 33850 
35122 34468 33292 33056 
34524 34783 33350 32245 
34046 34755 33231 32365 
33906 35195 33787 33077 
34154 34940 34342 33719 
33986 34817 34425 34591 
33747 34027 33809 34581 
33406 33359 32825 34077 
32635 32168 31709 33348 
32030 31787 31520 32473 
31757 31538 31597 32173 
31824 31573 32046 32377 
31929 31916 32468 32497 
32465 32466 32949 33113 
33070 33051 33336 33342 
32923 33128 32921 33338 
33086 32757 32674 32996 
32713 32717 32880 32973 
32745 33103 33084 33398 
32981 33491 33802 33949 
33900 34132 34125 34571 
33939 34216 34390 34723 
34388 34433 34223 35045 
34572 34869 34293 35309 
34465 34778 34587 35484 
34823 35106 34605 35852 
34889 35185 34603 35891 
34702 35923 35027 36913 
35843 35909 35429 36552 
35947 36193 35534 36582 
36169 36410 36151 36745 
36242 36514 36281 37216 
36560 36782 36560 37017 
36989 37208 36977 37041 
37127 37044 36849 37047 
36999 38298 38085 38415 
38511 38206 37938 37978 
38244 37847 37932 37748 
37969 37986 37753 37698 
37895 37786 37534 37349 
37955 37948 37663 37322 
37743 37958 37318 37957 
37540 38473 37484 37690 
37606 41587 38614 35269 
39297 32980 37495 34139 
36711 32687 35201 31520 
32772 30732 31716 31789 
32241 31222 31917 33962 
34456 34328 34827 33516 
33721 33521 33711 33180 
33246 33382 33224 32909 
32966 36926 32654 32786 
32507 30824 32845 32503 
32498 31776 32789 30620 
30789 29935 30345 31175 
31176 30939 31197 33757 
34167 33921 34196 33452 
33467 33456 33795 33393 
33157 33336 33380 32918 
33133 36928 32887 32794 
32486 30837 32817 32485 
32499 31761 32793 30627 
30743 29927 30588 31195 
31500 30974 31198 33746 
34156 33943 34178 33458 
33475 33428 33535 33394 
33376 33346 33368 32911 
33150 36914 32882 32770 
32444 30811 32842 32770 
32456 31782 32770 30615 
30749 29913 30583 31162 
31500 31246 31214 33791 
33935 33936 34427 33465 
33474 33436 33813 33378 
33402 33326 33367 32915 
33146 36919 32859 32769 
32503 30838 32833 32769 
32497 31779 32805 30598 
30751 29936 30337 31204 
31197 30934 31181 34073 
33928 33933 34198 33432 
33469 33449 33477 33399 
33349 33351 33313 33141 
33128 36907 32603 32771 
32388 30776 31664 32504 
32231 31410 30260 31996 
30636 30230 30205 31762 
31359 30892 29036 32663 
30759 31820 28720 32950 
30244 30193 28626 32709 
29974 29685 28594 31869 
29703 28362 27294 29269 
28508 28509 27737 28858 
28505 28264 27522 28817 
28460 28167 27555 28592 
28069 27986 27756 28699 
28220 27905 27579 28704 
28198 27627 27647 28400 
27870 27599 27991 28346 
27810 26290 26882 27096 
26710 26755 27465 27588 
27239 27009 27763 27617 
27418 27432 27961 27980 
27501 27353 28200 27790 
27351 27967 28304 28234 
27757 28450 28663 28125 
27602 28830 29118 28379 
27789 29253 28827 27942 
27453 29434 29118 28505 
28296 29503 29062 28492 
29457 28834 29556 28444 
30203 28712 30801 28088 
31206 28343 32564 28114 
31873 29037 33664 28131 
32303 30207 34414 28490 
31731 32782 34029 27618 
30827 33703 33690 29463 
30370 33788 33737 31154 
31034 33021 34078 33151 
31988 32231 33759 34010 
33610 32176 33837 34258 
34276 33105 33570 34065 
34730 33723 33350 33319 
34719 35016 33306 32206 
34756 35331 33316 32132 
34408 35158 33237 32769 
34095 34934 33864 33579 
33940 34722 34382 34232 
34373 34938 34255 34922 
33942 34242 33752 34558 
33591 33618 33060 33925 
32502 32293 31449 33312 
31477 31764 31165 32498 
31591 31609 31552 32539 
31456 31749 31735 32639 
32096 31906 32593 32679 
32594 32616 33095 32946 
32703 32686 33363 33326 
33146 33067 33328 33307 
33099 33025 32903 33369 
33088 33084 33121 33212 
32961 33346 33355 33846 
33247 33481 33454 34036 
33886 34160 34064 34512 
33963 34242 34038 35089 
34425 34460 34177 35349 
34588 34880 34292 35319 
34478 35661 35149 36637 
35408 35301 34715 36084 
34949 35246 34862 36064 
35161 35260 34882 36056 
35044 35709 35141 36438 
35628 35750 35282 36326 
35927 36006 35876 36685 
35995 36303 35993 36537 
36278 37619 37645 37786 
37967 37722 37270 37357 
37725 37509 37481 37429 
37341 37668 37440 37069 
37363 37748 37270 37075 
37648 37510 37304 37022 
37355 37745 37288 37002 
37649 37716 37314 37062 
37673 39034 38725 38636 
38956 38918 38185 38678 
38486 38442 37946 34286 
39227 33728 37299 33337 
35998 33038 34731 34756 
36283 35116 36179 34139 
34706 34146 34434 33633 
33730 33579 33841 33282 
33232 36769 33129 32801 
32655 30621 32734 32804 
32833 31812 32868 30648 
30782 29927 30349 31165 
31211 30955 31508 34052 
33952 33963 34197 33472 
33434 33435 33804 33383 
33163 33337 33373 32910 
32898 36916 32875 32772 
32486 30812 32841 32489 
32483 31776 32507 30835 
30758 29934 30351 31211 
31206 30963 31195 33808 
34154 33923 34419 33802 
33488 33415 33533 33199 
33380 33359 33360 32952 
32903 36925 32882 32769 
32489 30825 32853 32505 
32472 31794 32771 30629 
30770 29925 30342 31173 
31180 30933 31186 33775 
34170 33933 34197 33453 
33490 33433 33525 33161 
33381 33363 33370 32910 
32914 36916 32867 32495 
32482 30819 32824 32503 
32488 31774 32792 30619 
30742 29903 30581 31167 
31193 30952 31202 34051 
33926 33952 34185 33461 
33465 33433 33802 33383 
33393 33336 33349 32903 
33145 36932 32836 32772 
32458 30808 32784 32497 
32462 31780 32401 30619 
30737 29935 30376 31200 
31489 30956 31160 33779 
33774 34094 30855 33411 
32976 33541 29915 33209 
31968 32815 29592 32943 
30988 30832 28753 32791 
29762 30079 28966 32390 
29430 29529 28730 30637 
29550 29237 28436 31254 
28890 28698 28225 29073 
28565 28098 27780 28931 
28411 28206 27957 28567 
28479 27781 27912 28796 
28114 26704 26322 27264 
26977 26790 26790 27621 
27088 26865 27053 27972 
27298 27019 27264 28014 
27326 27018 27316 27965 
27357 27083 27719 27777 
27691 27453 27608 27796 
27710 27320 27796 27820 
27708 26650 27034 26925 
26396 27350 28204 27658 
26806 28328 28666 28007 
27396 29113 29137 28045 
27719 29342 29316 28441 
27903 29177 29590 28506 
28645 28850 30763 28441 
29877 28575 32270 28129 
31404 28227 33968 27224 
33039 30226 34213 27905 
32655 32324 34083 28074 
32102 33474 33480 29237 
30972 34104 33818 30831 
30838 33538 33730 32516 
31267 32445 33767 33510 
32139 32330 33850 34336 
33588 33124 33606 34415 
34794 34091 33005 33580 
34767 34519 33104 32828 
34465 34786 33117 32164 
34335 34731 33020 32174 
33770 34454 33275 32859 
33889 34241 33682 33596 
33769 34578 34401 34344 
33948 34756 34843 35399 
33920 33972 33828 34828 
32982 32900 32634 33748 
32137 32266 31805 33284 
31860 31745 31191 32837 
31487 31386 31614 32636 
31673 31865 32109 32403 
32321 32287 32490 32648 
32793 32664 33248 33188 
33294 32912 33241 33244 
33001 33107 32926 33208 
33029 32672 32855 33161 
32681 32669 32794 33265 
33071 32909 33049 33507 
33340 33561 33192 34116 
33432 33699 33874 34263 
33786 34853 34678 35621 
34502 34718 34679 35645 
34496 35097 34447 35886 
34555 34944 34680 35751 
34874 35015 34598 36102 
34874 35011 34246 36097 
34910 35059 34562 36144 
35115 35231 34869 36004 
35418 36687 36151 37465 
36499 36496 36093 37171 
36515 36954 36658 37226 
36924 37128 36914 37220 
36852 37065 36854 37238 
37000 37451 37179 37152 
37062 37262 37003 37133 
37394 37336 37061 37126 
37457 38570 38356 38113 
38556 38417 38177 37618 
38107 38239 37850 38181 
37810 38490 37914 38524 
37812 38543 37930 37318 
37965 37938 37262 35909 
37963 35824 37425 34675 
38418 34595 37064 33522 
36810 37467 35855 32727 
34934 30853 34177 32867 
33803 31638 33600 30631 
31326 30259 31040 31504 
31480 30963 31420 34065 
34319 33964 34583 33420 
33811 33441 33843 33158 
33153 33365 33407 32902 
32928 36921 32892 32492 
32500 30823 32835 32772 
32489 31784 32807 30645 
30734 29917 30560 31157 
31191 30939 31212 34061 
33933 33955 34192 33450 
33471 33429 33808 33382 
33395 33348 33371 32912 
33146 36920 32873 32769 
32483 30814 32836 32497 
32486 31779 32771 30834 
30734 29930 30591 31215 
31212 31238 31209 33741 
33929 34165 34409 33471 
33465 33426 33806 33399 
33375 33364 33370 32925 
33147 36917 32874 32495 
32477 30825 32827 32509 
32497 31775 32776 30622 
30750 29920 30570 31153 
31206 30933 31231 33780 
33930 33925 34183 33462 
33474 33461 33800 33394 
33392 33351 33376 32919 
32904 36920 32837 32769 
32474 30833 32817 32506 
32468 31768 32511 30592 
30790 29945 30589 31206 
31207 30928 31190 34050 
33922 33927 34305 33431 
33446 33442 32959 33160 
33310 33335 31472 32914 
33030 36929 29466 32503 
32336 30537 29507 32800 
31853 30865 29491 30650 
30952 30485 29321 31162 
31247 30977 29071 33911 
29392 29076 28834 33401 
29548 28892 28585 31457 
29305 28608 28321 29609 
28918 27305 27152 28054 
27771 27674 27477 28504 
28016 27664 27294 28442 
27984 27353 27327 28098 
27923 27509 27333 28252 
27592 27438 27369 28238 
27602 27487 27705 28204 
27595 27441 27748 27890 
27565 26159 26283 26581 
26446 26687 26875 27082 
26945 26964 27297 27314 
27235 27417 27968 27741 
27113 27592 28119 27617 
27474 28296 28646 27891 
27388 29235 29062 28074 
27538 29507 29541 28421 
27938 28156 29349 27238 
27246 28429 31141 27743 
28989 28496 33114 27578 
30871 28919 34120 28006 
32807 30592 33948 28218 
33390 32393 33515 28355 
32643 33512 33577 29083 
32004 33755 33462 30763 
31314 33282 34153 32749 
30975 32236 33665 34101 
32175 32612 33420 34282 
33253 33189 33212 34145 
33949 34381 33364 33402 
34417 34728 33338 32445 
34036 35136 33370 32281 
34072 34736 33203 32341 
33850 34901 33854 32900 
34146 34562 34126 33768 
34018 34269 34372 34852 
33990 34309 34106 35073 
33803 33411 33007 34434 
32739 32788 32310 33908 
32282 32084 31754 32941 
31623 31753 31368 32494 
31830 31364 31843 32588 
32054 32123 32232 32821 
32601 32612 32743 33110 
32722 32681 32969 33302 
33118 33078 32897 33315 
33071 32736 32665 32933 
32695 32889 32812 33110 
32686 32720 32694 32957 
33103 33264 33587 33687 
33492 33669 33687 34330 
33752 34020 33981 34829 
34014 34296 34396 35197 
34188 34526 34217 35268 
34607 34932 34250 35703 
34450 34778 34266 35579 
34517 35092 34250 35909 
34528 35471 34730 36571 
35450 35632 34727 36290 
35435 35528 35030 36676 
35706 35804 35689 36525 
35798 36405 35827 36946 
36089 36652 36084 36962 
36319 36573 36263 36745 
36514 36741 36679 36750 
36943 38264 37892 37845 
38039 37987 37347 37300 
37622 37625 37315 37447 
37507 37516 37253 37079 
37665 37745 37498 37032 
37654 37715 37276 37043 
37642 37510 37264 37397 
37670 37553 37094 37942 
37311 40277 38243 36996 
38946 36706 37355 35156 
38923 34555 37385 31680 
35897 31433 34620 31700 
33686 31653 33209 34041 
35442 34287 35202 33817 
34327 33886 34032 33201 
33478 33180 33425 32936 
33338 36965 32764 32804 
32822 30839 32645 32504 
32784 31778 32840 30631 
30809 29936 30354 31167 
31188 30939 31198 33746 
34118 34136 34382 33645 
33511 33465 33828 33184 
33395 33366 33395 32921 
32910 36939 32894 32790 
32495 30813 32842 32504 
32467 31801 32773 30634 
30750 29905 30572 31167 
31489 30971 31231 34055 
33936 33960 34429 33474 
33459 33436 33811 33374 
33395 33328 33374 32919 
33131 36920 32868 32495 
32476 30833 32830 32505 
32454 31771 32795 30836 
30741 29921 30345 31220 
31495 30957 31188 33735 
33924 34167 34408 33485 
33478 33434 33804 33392 
33378 33348 33362 32921 
32906 36930 32884 32495 
32503 30824 32845 32778 
32475 31769 32774 30648 
30738 29922 30569 31138 
31197 30955 31203 33773 
33926 33935 34205 33459 
33480 33459 33463 33407 
33374 33346 33325 33149 
33147 36918 32417 32787 
32419 30813 31942 32502 
32616 31450 30846 30622 
30846 29933 30809 31158 
31141 30910 29500 34053 
32096 32744 28556 33595 
30428 30892 28652 33363 
30286 29946 29051 32634 
29664 28547 27522 29907 
28386 28376 27947 29064 
28673 28444 27564 29274 
28293 28228 27600 28615 
28156 27787 27757 28381 
28032 27930 27574 28693 
28247 27636 27592 28380 
28171 27565 27642 28289 
27826 26256 26736 27112 
26534 26948 27043 27683 
26873 26867 27473 27581 
27417 27027 27748 27909 
27475 27125 27645 27906 
27273 27328 27889 28017 
27352 27917 28465 27865 
27697 28441 28655 28065 
27554 28368 28732 27278 
26900 29498 29072 28162 
27568 29315 29505 28447 
28783 29298 29580 28430 
29641 28638 30681 28097 
30904 28686 32539 28078 
31893 28987 33824 28126 
32554 30305 34317 28474 
32307 32623 34361 27957 
30900 33883 34105 29455 
30417 34087 34158 31147 
30631 33383 34107 33126 
31683 32552 33676 33945 
33020 32189 33439 34418 
34023 33094 33201 33715 
34849 33688 33329 32997 
34936 34947 33020 32362 
34717 35151 32965 31980 
34331 34873 33016 32550 
33667 34220 33216 32994 
33868 34401 33698 34148 
34094 34259 34307 34523 
34096 34354 34145 34886 
33444 33495 33403 34204 
32707 32583 32117 33422 
31691 31684 31412 32717 
31434 31430 31375 32394 
31812 31796 31740 32586 
31888 31903 32515 32779 
32618 32623 33026 32760 
32747 32763 33322 32919 
32941 32953 33354 32939 
32918 32931 33150 32937 
33043 33065 32737 32983 
33039 33148 33102 33237 
32988 33191 33187 33703 
33604 33890 33839 34182 
33731 34011 34113 34555 
33992 34291 34022 35102 
34406 34461 34370 35335 
34294 35424 34917 36048 
35143 35333 34509 36208 
34777 35047 34666 36168 
34903 35005 34579 36189 
34734 35386 34526 36080 
34998 35656 35138 36472 
35321 35934 35319 36658 
35922 36008 35733 36580 
36041 37334 37110 37785 
37634 37477 37223 37683 
37292 37268 37050 37447 
37419 37250 37209 37017 
37435 37346 37019 37228 
37484 37647 37032 37128 
37466 37356 37067 36860 
37474 37368 37113 36862 
37289 38579 38299 38034 
38530 38133 37982 37795 
38066 38115 37542 37496 
38057 37193 38237 34825 
38971 34551 37477 35694 
37562 35720 36651 34569 
36354 34576 35674 33847 
34875 33793 34626 33368 
33917 37144 33585 32872 
33139 30671 32974 32825 
32701 31835 32739 30657 
30617 30211 30449 31184 
31224 30943 31489 33768 
33956 33933 34223 33479 
33489 33464 33825 33381 
33398 33344 33379 32911 
33151 36929 32867 32773 
32501 30833 32827 32774 
32487 31778 32801 30831 
30766 29945 30588 31199 
31190 30921 31172 34054 
33932 33920 34204 33440 
33480 33460 33531 33406 
33366 33352 33384 32898 
32907 36918 32862 32787 
32468 30819 32821 32491 
32492 31762 32792 30641 
30756 29925 30582 31142 
31188 30929 31197 34075 
33933 33961 34198 33456 
33472 33431 33805 33380 
33390 33363 33360 32912 
33140 36921 32891 32504 
32503 30815 32841 32505 
32468 31788 32509 30837 
30754 29915 30338 31197 
31501 30969 31208 33744 
34130 33923 34421 33460 
33495 33429 33521 33166 
33379 33347 33364 32901 
32900 36924 32829 32776 
32469 30835 32797 32493 
32477 31786 32427 30622 
30737 29927 30377 31183 
31197 30913 31115 33759 
34071 34085 30713 33446 
33324 33274 29663 33177 
32272 32458 29514 32908 
30835 30156 28153 32454 
29559 29679 28410 32269 
29483 29520 28494 31009 
29497 29295 28427 30695 
28908 28579 28195 28747 
28655 28529 27858 28574 
28757 28112 28029 28589 
28333 28202 27999 28586 
28430 26909 26550 27738 
27159 27022 27122 27806 
27412 27117 27314 28173 
27656 27470 27609 28200 
27688 27494 27969 28211 
27728 27321 28177 28269 
27537 27735 28100 28059 
27564 27929 28329 28096 
27617 27016 27966 27407 
26679 28277 28784 27844 
27122 28867 29277 28469 
27584 29814 29332 28603 
28284 29998 29326 28944 
28743 29752 29462 28659 
29206 29305 29319 28743 
29789 28607 30373 28310 
30379 27298 32694 27121 
31378 28052 33932 27532 
31901 29990 34245 27854 
31714 32086 33926 28485 
31164 33646 34089 29076 
30688 33944 33942 30674 
30856 33517 33939 32625 
32095 32765 33705 33896 
33327 32791 33618 34763 
34752 33198 32954 34184 
34950 33994 33031 33635 
34688 34440 33033 32646 
34266 34849 32944 32549 
34103 34445 33165 32564 
33806 34198 33461 33037 
33833 34201 34165 33799 
33788 34725 34842 35073 
34044 34420 34049 34847 
33240 33195 32882 34143 
32591 32186 31649 33390 
31685 31764 31190 32836 
31455 31576 31564 32565 
31857 31757 32061 32538 
31989 31929 32446 32472 
32469 32857 33239 32980 
33301 32956 33549 33160 
33317 32977 33286 33197 
33133 33083 32673 33155 
32720 32733 32780 33229 
33030 33131 32732 33482 
33304 33228 33167 34089 
33662 33664 33879 34253 
33778 34852 34539 35689 
34870 34773 34863 35518 
34883 35194 34858 35953 
34906 34976 34557 36115 
34711 35069 34486 35979 
34713 35054 34606 36205 
34694 35034 34568 36199 
34792 35383 34513 35992 
35061 36251 35727 37427 
36617 36345 36188 37133 
36643 36556 36283 37198 
36591 36770 36541 37174 
36800 37233 36753 37200 
37174 37088 36818 36836 
37237 37413 36857 36829 
37060 37479 37188 36798 
37394 38739 38460 38248 
38729 38088 37791 37681 
38238 37855 37902 37946 
37792 38253 37556 38757 
37775 39239 37529 37727 
37622 37800 37109 36058 
37583 36543 37199 34723 
38024 35126 37377 33897 
37414 37742 36433 33070 
34963 31257 34541 32668 
33687 31717 33812 30676 
31125 30267 31099 31210 
31480 31242 31474 33844 
34336 33944 34579 33831 
33534 33469 33866 33189 
33192 33344 33185 32926 
32908 36937 32892 32791 
32507 30825 32841 32782 
32494 31770 32799 30623 
30759 29905 30523 31171 
31205 30975 31496 33760 
33921 33947 34181 33465 
33464 33430 33808 33392 
33383 33336 33378 32910 
33151 36932 32879 32779 
32489 30823 32845 32495 
32481 31780 32779 30838 
30746 29919 30572 31219 
31228 30974 31201 33777 
33935 34153 34187 33466 
33462 33447 33531 33404 
33383 33353 33389 33143 
33140 36927 32857 32505 
32456 30827 32823 32778 
32494 31763 32790 30600 
30787 29951 30349 31179 
31181 30925 31179 34077 
33922 33954 34206 33431 
33488 33425 33799 33402 
33382 33361 33353 32913 
32909 36917 32847 32498 
32488 30821 32825 32494 
32487 31775 32498 30618 
30745 29916 30545 31176 
31176 30962 31523 33754 
34158 33923 33971 33441 
33464 33430 32764 33168 
33310 33287 31275 32915 
32727 36703 29269 32819 
32082 30470 29294 32772 
31253 30575 28918 30601 
31239 30383 29293 31201 
30801 30546 28828 33409 
28848 28703 28619 32423 
29207 28775 28406 30199 
28895 28770 28477 29697 
29035 27440 26860 28062 
27686 27377 27478 28310 
27970 27664 27364 28498 
27973 27649 27686 28440 
27940 27324 27760 28154 
27926 27332 27633 28153 
27950 27353 27983 28092 
27906 27341 27798 28042 
27603 26053 26951 27002 
26260 26596 27288 27309 
26836 27217 27637 27683 
27019 27279 28175 27588 
27413 27910 28471 27996 
27300 28518 28653 28238 
27739 28895 29251 28145 
27916 29449 29491 28499 
27893 28158 29559 27057 
27530 28439 31296 27540 
29565 28288 32734 27572 
31129 29449 33790 27964 
32611 31357 34323 27851 
32871 33124 34150 28499 
32360 34076 34073 29085 
31448 34061 34111 30992 
31565 33147 34310 33205 
32129 32453 33826 34252 
33394 32915 33163 34503 
34049 33713 32951 34004 
34344 34639 32914 33183 
34315 34929 33007 32392 
34063 34536 33390 31943 
33840 34424 33243 31941 
33652 33970 33830 32653 
33884 34060 33743 33806 
34084 34017 34327 34476 
34009 34414 33990 35157 
33770 34078 33562 34726 
33354 33299 32626 34018 
32576 32195 31850 33211 
31730 31629 31510 32858 
31472 31159 31209 32249 
31426 31782 32117 32418 
31955 31992 32471 32727 
32414 32406 33094 32988 
32715 32668 32930 33362 
33066 32704 32766 33015 
32738 32892 32641 32931 
32717 32679 32705 33007 
33107 33197 33537 33667 
33444 33863 33869 34032 
33689 33956 34141 34507 
33927 34216 34022 35132 
34336 34659 34039 35440 
34208 34515 34305 35319 
34286 34838 34043 35472 
34596 34894 34032 35503 
34590 35387 34621 36313 
35146 35016 34586 36031 
35158 35231 34915 36053 
35372 35703 35026 36431 
35508 36114 35494 36650 
36160 36465 36107 36495 
36449 36716 36384 36567 
36675 36902 36307 36592 
36607 38195 37566 37932 
38211 37920 37257 37435 
37561 37573 37251 37110 
37750 37541 37279 37068 
37735 37561 37362 37048 
37732 37578 37336 37044 
37679 37734 37283 37097 
37676 37505 37472 37252 
37666 39201 38137 38447 
38969 38681 37708 35849 
38493 36130 37044 32140 
37101 32333 36161 31943 
34842 32297 34307 34401 
35572 34446 35556 33859 
34278 33697 34259 33209 
33821 33204 33507 32927 
33366 36986 33074 32777 
32833 30596 32685 32789 
32792 31778 32830 30839 
30809 29941 30381 31206 
31197 30949 31196 33808 
33928 33930 34180 33824 
33453 33448 33810 33176 
33397 33332 33385 32941 
32900 36937 32883 32794 
32492 30819 32828 32773 
32482 31771 32774 30654 
30752 29916 30555 31150 
31185 30948 31205 33775 
33920 33942 34204 33436 
33490 33431 33802 33406 
33380 33355 33367 32926 
32915 36935 32892 32505 
32461 30818 32845 32502 
32466 31796 32770 30611 
30452 29895 30565 31179 
31496 31241 31490 33786 
33960 33925 34427 33461 
33473 33446 33798 33390 
33398 33332 33386 32914 
32901 36927 32860 32776 
32471 30817 32821 32495 
32481 31768 32511 30602 
30761 29928 30338 31205 
31218 30956 31195 33785 
33932 33934 34200 33434 
33481 33441 33459 33160 
33350 33360 33023 33142 
33139 36920 32206 32773 
32398 30817 31513 32780 
32547 31420 30002 30592 
30835 29928 30092 31185 
31164 30928 29220 33736 
31212 32644 29018 33629 
30581 30919 29196 33403 
30333 30081 28904 32472 
30056 28965 27936 30194 
28731 28723 27833 29158 
28551 28461 27928 29075 
28368 28253 27922 28550 
28453 28004 27550 28504 
28257 27562 27521 28519 
28161 27728 27773 28451 
27833 27700 27574 28140 
28009 26097 26677 26878 
26646 26539 27255 27661 
27192 26770 27497 27678 
27076 27163 27651 27768 
27411 27233 27765 27561 
27508 27431 28010 27932 
27351 27695 28255 27995 
27370 27821 28311 27848 
27699 27965 28073 27151 
26344 29030 29059 27641 
27293 29141 29854 27841 
28298 29253 31086 28195 
30029 28949 32309 28205 
31562 28975 33358 28054 
32622 29819 33678 28149 
32700 31505 33731 28379 
32552 33629 33755 28349 
30884 34117 33733 30506 
30768 33422 34163 32144 
31096 32812 34105 33447 
31939 32306 33799 33926 
33159 32487 33199 33816 
33954 33642 32959 33051 
34608 34187 33136 32336 
34616 35437 33000 31822 
34485 35132 33334 32134 
33996 34638 33161 32959 
33899 33921 33556 34083 
33834 34104 33695 34912 
33777 34332 34316 35418 
34121 34399 34014 35220 
33865 33759 33642 34715 
32934 32703 32357 34071 
32105 31905 31770 32955 
31796 31784 31398 32504 
31816 31764 31679 32423 
32097 32052 32161 32841 
32514 32231 32878 33047 
32891 32873 32939 32953 
33107 33098 33284 32949 
33135 32900 33110 32938 
32734 32753 32641 33106 
32669 32743 32642 32992 
33056 32954 33139 33592 
33370 33566 33244 33789 
33453 33681 33834 34388 
33747 33979 34075 34483 
33971 34210 34005 34743 
34408 34962 34854 35753 
35090 34959 34478 35883 
34924 34952 34632 35963 
34880 35196 34561 35746 
34942 35056 34685 36192 
35151 35282 34744 36373 
35231 35575 35404 36610 
35851 36169 35570 36538 
36188 37463 37203 38174 
37325 37396 36851 37522 
37448 37493 37226 37344 
37101 37426 37179 37461 
37407 37294 37000 37442 
37497 37633 37060 37076 
37498 37666 37102 37054 
37268 37668 37387 37240 
37326 38643 38376 38293 
38638 38444 37869 38208 
38039 38052 37510 36801 
38264 38184 37624 34272 
38786 35398 38265 35624 
37916 36048 36317 34218 
37164 34509 36173 33498 
35260 33856 34978 33352 
34017 37184 33776 32842 
33304 30695 33396 32788 
33033 31830 33122 30630 
30679 30226 30796 31493 
31532 30951 31531 34056 
33974 33938 34252 33433 
33507 33438 33803 33400 
33376 33367 33385 33148 
32914 36928 32873 32773 
32474 30828 32821 32772 
32504 31765 32800 30602 
30764 29927 30582 31165 
31158 30939 31181 33763 
34168 34158 34186 33440 
33468 33457 33793 33154 
33160 33345 33389 32914 
32902 36940 32874 32788 
32481 30814 32840 32773 
32488 31763 32508 30828 
30760 29944 30354 31197 
31190 30949 31190 33758 
33932 33932 34430 33470 
33469 33427 33802 33152 
33369 33356 33364 32906 
32908 36936 32885 32506 
32498 30806 32835 32770 
32490 31789 32777 30617 
30737 29905 30573 31161 
31194 30961 31214 34058 
33946 33934 34182 33461 
33460 33450 33807 33388 
33400 33341 33366 32913 
33143 36933 32848 32781 
32466 30814 32783 32495 
32471 31774 32444 30604 
30721 29936 30356 31210 
31498 30950 31166 33777 
34104 34115 31799 33442 
33187 33570 30298 33153 
32548 32654 29801 32933 
30945 30830 28400 32500 
29323 30022 28651 32614 
29315 29548 28751 30631 
29507 29311 28488 31270 
28905 28548 28046 29078 
28617 28461 27880 29054 
28685 28266 28008 28636 
28503 27843 27933 28584 
28118 26499 26651 27336 
26758 26867 27186 27956 
27113 27199 27059 27778 
27342 27105 27303 27800 
27363 27079 27360 28013 
27363 27107 27704 28019 
27663 27424 27548 28024 
27687 27272 27961 27786 
27687 26273 26824 26607 
26379 27116 27645 27296 
26774 28207 28308 27575 
27101 28820 29197 28174 
27672 29364 29367 28152 
28167 29413 30064 28291 
28932 29154 30838 28513 
30054 28810 32066 28466 
31344 28178 33819 27013 
32226 29605 33976 27918 
32561 31721 34120 28033 
31726 33549 33673 28879 
31279 34105 33748 30428 
31023 33661 34135 32133 
31596 32880 34093 33658 
32440 32568 33859 33964 
33516 33217 33570 33999 
35090 34308 32967 33403 
34931 34542 33069 32457 
34565 34842 33070 32139 
34149 34578 32928 32533 
33802 34167 33354 32733 
33589 33869 33620 33417 
33640 33696 34067 34418 
33666 34471 34938 35535 
34371 34229 34352 35208 
33426 33427 32992 34665 
32778 32449 31931 33455 
32063 31659 31544 32715 
31761 31612 31189 32541 
31841 31462 31800 32147 
31909 32086 32133 32538 
32614 32436 32902 32706 
32907 33056 33318 33130 
32928 33071 33123 33138 
32735 32886 32783 32720 
32825 32496 32394 32708 
32859 32883 32862 33129 
33133 33019 33320 33255 
33275 33505 33858 33735 
33701 34486 34519 35120 
34822 34691 34543 35026 
34552 35084 34524 35602 
34874 35166 34476 35560 
34903 34981 34626 35719 
34877 35189 34197 35731 
34543 35111 34361 35749 
34852 35158 34258 35838 
35073 36164 35656 37089 
36040 36063 35946 37141 
36396 36332 36357 37064 
36663 36579 36669 37116 
36906 36852 36938 37478 
37138 37051 36838 37443 
37216 37115 36858 37380 
37033 37436 37174 37080 
37087 38694 38438 38283 
38725 38079 37848 37992 
38037 38225 37944 37945 
38009 37817 37504 38574 
38015 38432 37730 37616 
37626 37964 37423 36857 
37547 38045 37180 35229 
37589 36239 36956 34407 
38251 38324 37269 33009 
36727 31379 35577 32710 
34489 31933 34425 30707 
31469 30099 31171 31492 
32004 31319 31703 34060 
34201 33988 34671 33463 
33841 33472 33905 33383 
33190 33346 33202 32904 
32919 36952 32891 32771 
32502 30809 32842 32508 
32492 31763 32787 30606 
30783 29946 30365 31209 
31206 30934 31177 34061 
33922 33929 34211 33434 
33484 33454 33518 33398 
33366 33355 33369 33148 
32913 36939 32868 32505 
32484 30805 32827 32775 
32485 31767 32799 30610 
30742 29911 30566 31159 
31205 30956 31216 33844 
34164 34156 34182 33818 
33456 33458 33520 33177 
33394 33339 33387 32929 
33134 36959 32870 32799 
32447 30806 32826 32775 
32780 31769 32806 30606 
30753 29920 30585 31188 
31493 30972 31192 33749 
33932 33921 34181 33471 
33452 33458 33529 33385 
33387 33325 33391 32915 
32897 36952 32863 32774 
32474 30820 32831 32773 
32483 31765 32769 30844 
30774 29938 30348 31209 
31203 30931 31184 34062 
33926 33933 34359 33427 
33441 33452 33198 33160 
33304 33329 31948 32903 
32728 36914 29540 32484 
31720 30140 29078 32794 
31033 30344 29198 30844 
30886 30536 29230 31159 
30197 30474 29051 33658 
28826 28769 28650 32537 
29244 28651 28746 30193 
29218 28611 28288 29741 
29035 27273 27157 28099 
27680 27686 27506 28336 
27951 27695 27325 28488 
27957 27657 27371 28427 
27913 27323 27681 28109 
27584 27266 27760 28090 
27617 27308 27636 28083 
27609 27309 27985 28032 
27600 26084 26610 26756 
26483 26604 27440 27519 
26990 27175 27609 27729 
27044 27370 28272 27905 
27412 28007 28329 27788 
27295 28344 28970 28061 
27769 29244 29109 28537 
28026 29339 29562 28400 
28421 28382 28849 27276 
28343 28334 30205 27974 
30323 28302 31970 27968 
31755 28844 33661 27809 
32224 30740 34009 28170 
32158 32623 34171 28464 
31618 33849 33728 28834 
31296 33930 33752 30544 
30931 33552 34399 32711 
32072 32455 33775 33942 
33312 32500 33647 34446 
33977 33241 33353 34345 
34441 34334 32987 33559 
34464 34832 33009 32504 
34397 34929 33327 31981 
33768 34436 33167 31906 
33439 34218 33639 32454 
33439 34049 33491 33621 
33810 34101 34053 34253 
33708 34139 33752 34690 
33809 33811 33382 34456 
32906 32755 32221 33679 
32175 31962 31788 33078 
31648 31447 31585 32200 
31771 31160 31824 32027 
31693 31682 32238 32291 
32254 32534 33096 32485 
32758 33048 33166 32926 
33314 33355 33213 33196 
33352 33354 32953 33155 
33144 32902 32890 33006 
32680 33028 32790 32958 
32679 33018 32920 33451 
33381 33631 33596 34061 
33479 33776 33762 34253 
33788 34343 34001 34917 
34320 34637 34423 35020 
34267 34542 34221 35265 
34669 34697 34282 35684 
34521 34809 34602 35566 
34868 35459 35115 36561 
35308 35600 34773 36315 
35267 35482 35018 36643 
35665 35905 35290 36545 
35727 35991 35925 36762 
36049 36270 36221 36861 
36295 36485 36461 37190 
36512 36987 36683 37247 
36943 38246 37943 38485 
38081 37985 37633 37964 
37988 37943 37667 37738 
37544 37545 37327 37652 
37538 37582 37658 37640 
37569 37892 37702 37344 
37538 37582 37663 37352 
37517 37612 37287 37980 
37664 39369 38363 37969 
38864 37932 38158 35263 
39208 35259 37619 32124 
35248 32036 34085 32105 
33489 32114 33149 34041 
35378 34618 35056 33879 
34305 33672 33970 33187 
33433 33206 33620 32961 
33295 36736 32757 32777 
32836 30844 32646 32787 
32771 31801 32838 30843 
30770 29918 30359 31209 
31497 30955 31186 34052 
33921 34172 34215 33436 
33466 33463 33516 33407 
33372 33357 33375 32898 
32911 36927 32865 32775 
32477 30804 32830 32490 
32482 31769 32792 30639 
30742 29912 30568 31133 
31197 30950 31227 34067 
33926 33972 34184 33475 
33483 33429 33813 33385 
33154 33340 33356 32913 
33122 36934 32879 32491 
32500 30745 32510 32442 
32625 31480 32488 30808 
30426 29897 30567 31194 
31493 30953 31174 33700 
34138 34157 34407 33453 
33476 33426 33526 33152 
33369 33350 33377 32919 
32909 36765 32866 32501 
32487 30762 32844 32509 
32476 31485 32780 30635 
30794 29915 30343 31146 
31182 30941 31171 33772 
33923 33923 34204 33465 
33453 33449 33510 33386 
33373 33345 33307 32916 
33140 36773 32800 32840 
32770 30597 32342 32833 
32612 31469 30648 30631 
30846 29949 30457 31200 
31177 30906 29273 33775 
30914 32392 28392 33258 
30124 30626 28548 33283 
29902 30274 29036 32230 
29956 28848 27905 30275 
28600 28963 27851 29344 
28598 28751 27984 29563 
28737 28489 28017 28860 
28342 28264 27915 28564 
28423 27850 27967 28595 
28105 27792 27999 28784 
28268 27972 27799 28692 
28167 26676 26957 27511 
26882 26820 27503 27572 
27191 27207 27663 27939 
27476 27078 27643 27980 
27286 27401 28023 27964 
27312 27295 28228 27819 
27386 27561 28501 28167 
27717 28219 28601 28078 
27587 28244 28696 27344 
26999 29179 29499 28103 
28173 29594 29742 28752 
29155 29749 29820 28776 
30544 29309 29936 28406 
31188 28995 31201 28372 
31707 28934 32722 28356 
32118 29552 33708 28385 
31639 31317 34007 27602 
30666 33032 33583 28696 
30556 33878 33167 29629 
30560 33412 33446 31525 
31243 32869 33787 33025 
32529 32309 34160 33906 
33523 32533 33789 34095 
34644 33356 33800 33474 
35118 34931 33599 32749 
35299 35033 33348 32586 
34899 35332 33338 32616 
34012 34775 33159 33026 
33683 34510 33526 33496 
33730 34468 33971 34181 
34120 34655 34379 34550 
33717 34012 33705 34675 
33198 32984 32782 34063 
32158 32316 31720 32946 
31853 31478 31545 32385 
31451 31588 31613 32382 
31840 31759 32010 32159 
31953 31924 32568 32629 
32402 32385 33049 32863 
32735 32716 33281 33025 
33104 33143 32985 33133 
33045 32751 32743 33135 
32717 32746 32711 33014 
33106 32955 32953 33629 
33155 33628 33593 34111 
33820 34051 33720 34259 
34152 34410 34010 34860 
34410 34675 34199 35149 
34584 35430 34806 36141 
34968 35365 34908 36119 
35129 35380 34828 36131 
34756 35054 34687 36164 
34766 35369 34515 36037 
34967 35314 34769 36417 
35246 35842 35420 36637 
35843 36179 35879 36869 
35988 37281 37077 38169 
37371 37466 37013 37889 
37333 37281 37427 37728 
37482 37300 37117 37352 
37288 37655 37437 37306 
37330 37712 37445 37452 
37311 37686 37471 37407 
37329 37705 37256 37413 
37641 38939 38739 38325 
38651 38492 38185 38020 
38473 38513 37801 37862 
38523 37099 38760 35157 
38984 34918 37026 35867 
37915 35765 36872 34653 
36124 34609 35443 33899 
34682 33793 34353 33397 
33819 37161 33173 32643 
33087 30663 32898 32823 
32663 31838 32704 30648 
30598 30210 30426 31192 
31225 30930 31214 33778 
33958 33935 34213 33481 
33469 33454 33818 33372 
33399 33349 33380 32934 
33137 36949 32861 32499 
32769 30827 32841 32774 
32480 31776 32798 30833 
30749 29945 30343 31209 
31214 30915 31176 33791 
33920 33930 34195 33444 
33458 33440 33459 33340 
33305 33281 33346 33124 
33127 36975 32830 32497 
32462 30749 32818 32481 
32468 31476 32786 30615 
30762 29924 30565 31147 
31165 30930 31193 34072 
33933 33940 34206 33452 
33475 33432 33535 33375 
33384 33350 33370 32904 
33150 36762 32879 32508 
32495 30758 32839 32769 
32469 31765 32783 30843 
30735 29894 30571 31193 
31503 30970 31223 33736 
34136 34173 34414 33447 
33480 33434 33520 33163 
33383 33341 33375 32915 
32917 36772 32831 32774 
32470 30781 32810 32499 
32483 31752 32483 30637 
30738 29924 30581 31184 
31201 30928 31154 33739 
34097 34144 32182 33484 
33214 33541 30330 33361 
32594 32675 29736 32952 
31303 31073 28292 32460 
29382 29933 28780 32615 
29324 29703 28718 30719 
29406 29561 28302 31318 
29284 28996 28144 29395 
28997 28383 28235 29270 
28585 28451 27868 28836 
28673 28264 27777 28985 
28489 26922 26559 27611 
27197 27024 27077 27859 
27452 27095 27498 28201 
27670 27424 27759 28215 
27676 27132 27567 28190 
27700 27452 27970 28214 
27526 27285 27830 28212 
27536 27379 28236 28206 
27522 26672 27461 26865 
26303 27278 28237 27674 
26764 28075 28772 27847 
27504 29261 29135 28510 
27645 29627 29381 28747 
28427 29953 29399 28580 
28885 29402 29765 28761 
30008 29216 30560 28403 
30715 27636 32572 27116 
31847 28350 33907 27541 
31906 30254 34027 27882 
31644 31960 33677 28459 
31315 33648 33478 28924 
30830 34101 33918 30415 
30623 33609 34134 32143 
31477 32813 34104 33495 
32740 32165 33917 34693 
34549 32933 33176 34229 
34995 34134 32898 33650 
35120 34492 33069 32863 
34448 34786 32926 32143 
33976 34692 33356 32359 
33823 34645 33597 32505 
33459 34219 33767 33562 
33668 34779 34730 35075 
34209 34464 34593 34970 
33697 33710 33605 34532 
33096 32672 32218 33763 
32288 32079 31398 33281 
31811 31393 31140 32774 
31752 31372 31615 32546 
31720 31665 31905 32614 
32139 32200 32734 33030 
32746 32676 33339 33334 
32967 33127 33308 33176 
33104 32766 33031 33378 
32697 32641 32801 33341 
32656 32697 32855 33173 
33074 32958 32946 33461 
33167 33640 33419 34095 
33819 34571 34592 34956 
34677 34558 34485 35216 
34547 34798 34539 35664 
34848 35135 34542 35917 
34943 35005 34502 35838 
34736 35042 34647 36157 
34713 34999 34585 36123 
34722 35030 34634 36166 
35155 36209 35627 37207 
35982 36040 35883 36808 
36450 36330 36059 36816 
36331 36543 36298 36835 
36597 36804 36569 37156 
36774 37234 36965 36835 
37121 37035 36807 36800 
37208 37113 36859 36769 
37054 38365 38087 37834 
38297 38233 37951 37717 
38266 37850 37902 37659 
37935 37762 37716 38236 
37957 38138 37709 37340 
37580 37902 37422 37652 
37526 38029 37000 35756 
37552 36282 36863 34437 
38034 38323 37717 33169 
36331 31377 35524 33042 
34442 31926 34388 31018 
31483 30107 31117 31496 
31676 31315 31679 33790 
34410 33974 34675 33469 
33857 33486 33900 33154 
33223 33338 33195 32918 
32921 36958 32654 32781 
32486 30825 32833 32497 
32775 31774 32805 30617 
30740 29910 30338 31212 
31489 30971 31191 33739 
33920 33946 34179 33469 
33478 33428 33534 33391 
33383 33361 33377 32913 
33147 36930 32892 32509 
32489 30799 32846 32771 
32464 31781 32774 30595 
30742 29899 30579 31196 
31493 31241 31218 33774 
33928 33932 34426 33457 
33449 33436 33797 33380 
33391 33328 33381 32917 
33144 36943 32856 32509 
32455 30830 32824 32774 
32507 31761 32801 30600 
30785 29937 30340 31177 
31186 30926 31167 34069 
33933 33938 34202 33430 
33476 33449 33514 33403 
33372 33348 33382 33150 
32898 36935 32872 32780 
32482 30807 32830 32499 
32487 31767 32778 30612 
30741 29903 30576 31162 
31177 30959 31489 33778 
33920 33930 34357 33446 
33457 33446 33574 33401 
33340 33315 32584 32919 
33035 36961 29578 32776 
31988 30534 29102 32503 
31213 30618 28909 30596 
31101 30187 29223 31191 
30768 30403 29051 33625 
28873 28624 28651 32483 
29308 28987 28742 30459 
29261 28940 28324 29654 
29190 27722 27021 28386 
27940 27623 27365 28705 
28013 27576 27664 28751 
27862 27557 27608 28673 
27800 27717 27639 28372 
28014 27689 27797 28362 
28030 27715 27869 28541 
28002 27709 28193 28445 
27931 26436 26845 27258 
26690 26947 27668 27367 
26785 27232 27919 27572 
27109 27311 28064 27983 
27491 27932 28328 27868 
27350 28500 28987 28142 
27593 29227 29107 28397 
27847 29786 29342 28559 
28451 28800 28549 27586 
28059 28991 29441 27842 
29708 28702 30827 28166 
30871 28731 32592 28194 
31894 29473 33885 28241 
32230 30956 34000 28429 
31915 32663 33670 28697 
31520 33693 33597 29117 
30719 34121 33753 30688 
30351 33132 34114 32869 
31695 32137 34054 34066 
33329 32596 33831 34219 
34420 33214 33572 34160 
34703 34378 33386 33399 
34941 34925 33311 32422 
34613 35088 33329 31996 
33950 35058 33629 32365 
34083 34504 33804 32925 
34051 34584 33956 34120 
34163 34561 34364 34827 
34112 34036 33728 34704 
33597 33572 33134 34207 
32858 32464 32257 33454 
31948 32049 31460 33035 
31847 31178 31151 32522 
31612 31423 31655 32518 
32025 32080 32231 32769 
32244 32544 32685 33042 
32642 32886 32897 32965 
33071 33025 33120 32915 
32766 32691 32713 33038 
32670 32656 32671 32752 
32704 32955 33011 33163 
33369 33570 33606 33851 
33468 33743 33709 34315 
33754 34347 34174 34521 
34038 34642 34359 35170 
34244 34855 34429 35447 
34642 34745 34252 35678 
34539 35126 34297 35578 
34839 35535 34761 36594 
35228 35625 34943 36645 
35418 35477 35136 36609 
35313 35881 35212 36711 
35899 35969 35906 36915 
36003 36290 36048 36782 
36267 36529 36337 36852 
36491 36979 36567 37149 
36954 38248 37864 38244 
38247 37959 37514 37547 
37767 37913 37524 37315 
37526 37573 37366 37432 
37512 37601 37684 37416 
37520 37602 37357 37084 
37721 37504 37312 37382 
37696 37551 37421 37496 
37360 39466 38435 38591 
38996 37829 37571 36168 
38813 35621 37609 32547 
36201 32091 34622 32305 
34084 32123 33200 34243 
35276 34662 35204 33884 
34408 33671 34029 33239 
33467 33215 33663 32945 
33334 36740 33025 32806 
32814 30815 32664 32498 
32775 31786 32831 30627 
30792 29896 30586 31168 
31186 30975 31490 33762 
34154 33925 34189 33449 
33489 33455 33519 33400 
33401 33328 33392 32914 
32903 36966 32870 32793 
32477 30810 32835 32493 
32507 31774 32789 30613 
30746 29884 30348 31183 
31201 30962 31172 33751 
33921 33942 34426 33484 
33461 33436 33810 33386 
33400 33351 33371 32926 
33138 36963 32878 32500 
32770 30811 32837 32776 
32432 31784 32786 30847 
30451 29895 30577 31203 
31532 30969 31207 33779 
33937 33938 34188 33445 
33461 33454 33800 33395 
33374 33325 33383 32918 
32915 36951 32859 32774 
32492 30807 32820 32500 
32482 31761 32788 30607 
30760 29943 30591 31171 
31178 30927 31182 34083 
33942 33934 34212 33438 
33481 33446 33513 33394 
33374 33354 33318 33136 
33136 36947 32803 32783 
32447 30800 32608 32492 
32635 31478 31795 30628 
30805 29883 30453 31158 
31164 30941 29846 33729 
32081 33036 28419 33275 
30486 30998 28345 32965 
29829 29918 28593 32213 
29622 28933 27694 30048 
28691 28559 27908 29504 
28580 28356 27946 29539 
28699 28159 27949 28866 
28296 28215 27631 28581 
28140 27792 27644 28612 
28071 27982 27964 28573 
28259 27943 27808 28750 
28177 26699 26804 27369 
26923 27139 27378 27946 
27245 27058 27572 27800 
27518 27457 27831 27849 
27327 27279 28191 27847 
27377 27716 28137 28232 
27759 28010 28337 28035 
27564 28112 28574 28130 
27645 28175 28116 27354 
27005 29201 28824 28227 
27613 29349 29265 28496 
28569 29489 29105 28532 
29761 28816 29785 28423 
30411 28746 30914 28148 
31172 28740 32877 28076 
31658 29516 34105 28082 
32041 31414 34738 27477 
31143 33198 34601 28513 
31007 33950 34191 30266 
30897 33851 34325 31995 
32011 32724 34104 33804 
32943 32530 33490 34240 
34165 32700 33191 34393 
34477 33496 32960 33486 
34823 34728 32906 32507 
34895 34700 33108 32318 
33993 34675 32908 32338 
33509 33967 33002 32769 
33577 33737 33577 33545 
33475 34111 33788 34314 
33720 34043 34026 34507 
33678 34132 33896 34673 
33162 33000 32458 34076 
32355 32309 31641 32934 
31795 31455 31512 32621 
31448 31590 31447 32136 
31697 31851 31958 32220 
32189 32377 32833 32456 
32667 32652 33336 32756 
33281 33320 33597 32997 
33152 33603 33607 33246 
33301 33359 32943 33218 
33083 32949 32732 33570 
33079 33011 33098 33867 
33317 33585 33184 34028 
33434 33691 33799 34642 
33771 34018 34113 34729 
34039 34292 34330 35015 
34226 35017 34711 36061 
35157 34975 34820 36183 
34768 34981 34487 36000 
34940 35192 34639 36028 
34924 34975 34615 36083 
34782 35375 34527 36403 
35041 35647 35175 36272 
35656 35722 35309 36681 
35756 37039 36753 37965 
37453 37030 36828 37332 
37107 37436 37164 37431 
37067 37417 37195 37035 
37402 37275 37013 37241 
37475 37339 37031 36855 
37452 37342 37036 36824 
37495 37374 37071 36830 
37298 38615 38274 38262 
38605 38412 37998 37552 
38018 38253 37353 38448 
38171 38765 37280 35281 
38332 35892 37957 35812 
37746 36421 36187 34465 
37289 34865 36051 33668 
35862 33681 35628 33170 
34223 37205 34220 32863 
33375 30675 33640 32786 
33117 31841 32969 30660 
30686 29938 30812 31197 
31522 30956 31585 34059 
33975 33977 34266 33446 
33518 33441 33814 33404 
33404 33339 33406 32900 
32896 36948 32864 32510 
32468 30816 32834 32504 
32504 31761 32795 30844 
30768 29926 30587 31202 
31154 30937 31181 33809 
33930 34174 34427 33822 
33479 33436 33807 33173 
33389 33347 33368 32953 
33137 36962 32642 32786 
32499 30812 32843 32500 
32495 31786 32778 30602 
30724 29891 30566 31185 
31226 31233 31217 33765 
33920 33927 34420 33467 
33480 33426 33533 33402 
33369 33359 33381 32917 
32908 36950 32880 32773 
32486 30787 32838 32501 
32471 31778 32769 30605 
30751 29904 30572 31172 
31219 30919 31493 33787 
33927 33969 34426 33470 
33465 33433 33811 33381 
33393 33346 33367 32924 
33137 36965 32831 32496 
32504 30825 32784 32774 
32489 31769 32769 30597 
30742 29941 30588 31217 
31209 30942 31154 33783 
34152 33927 32938 33454 
33601 33593 30616 33354 
33036 33134 30027 32959 
32271 32514 28601 32773 
30084 30504 29009 32452 
29655 29794 29030 30709 
29895 29680 28614 31333 
29492 28838 28316 31593 
29040 28384 28443 29595 
28995 28302 28260 29160 
28791 28135 28161 29198 
28371 26800 26900 27782 
27033 27126 27120 28286 
27349 27424 27374 28155 
27761 27290 27575 28124 
27761 27482 27645 28043 
27741 27483 27991 28272 
27536 27280 27814 28247 
27561 27340 28199 28220 
27544 26269 27009 26842 
26322 27234 27948 27309 
26988 27521 28081 27625 
27119 28494 28586 27903 
27323 28879 28887 28127 
27586 29469 29301 28538 
28190 29151 29121 28522 
28328 28863 29664 28460 
29124 27589 31774 27244 
30679 28296 33540 27660 
32253 30210 34220 27979 
32760 31981 34346 28091 
32590 33413 33903 28661 
31760 34125 33516 30073 
30882 33638 33889 31402 
30875 32801 33674 33115 
31701 32270 33909 34620 
33585 32732 33240 34251 
34385 33707 32900 33868 
34618 34664 32727 33059 
34236 34723 33025 32210 
33971 34903 32963 31937 
33670 34595 33197 32135 
33524 34351 33811 33041 
33875 34559 34483 34275 
34195 34609 34212 34833 
33707 33735 33588 34264 
33124 32716 32215 33532 
32290 32051 31399 32761 
31804 31590 31179 32204 
31779 31609 31790 31975 
32072 31716 32146 32284 
32520 32611 33296 32394 
32919 33100 33560 33066 
33360 33334 33261 33313 
33016 32985 33119 33337 
33063 33028 32777 33318 
32660 32696 32454 33342 
32747 33125 32746 33569 
33290 33262 33202 33684 
33424 34405 34384 34928 
34240 34444 34564 34947 
34634 34882 34680 35421 
34670 34714 34615 35647 
34516 35094 34614 35851 
34554 35118 34261 35884 
34536 35076 34210 35893 
34545 35095 34248 35716 
34692 35965 35427 36808 
35751 35822 35694 36758 
35982 36397 36166 36846 
36423 36646 36425 37204 
36722 36942 36725 37076 
36961 37156 36889 37061 
36829 37011 36984 37035 
37215 37104 36771 37226 
37011 38357 38254 38117 
38340 38221 37908 37909 
38189 37871 37543 37367 
37972 37969 37653 37353 
37899 37858 37684 37493 
37545 37930 37471 37274 
37558 38071 37062 37956 
37522 37716 36806 36639 
37597 39518 37965 34544 
38478 31885 36534 33506 
35543 32144 35009 31343 
32296 30478 31652 31404 
31978 31338 31908 33923 
34582 34020 34822 33488 
33688 33468 33734 33153 
33223 33329 33210 32929 
32940 36987 32688 32502 
32774 30808 32863 32773 
32489 31788 32785 30630 
30760 29910 30572 31184 
31216 31238 31489 33780 
33933 33950 34184 33451 
33461 33440 33802 33386 
33392 33317 33364 32919 
33139 36955 32867 32509 
32495 30819 32827 32769 
32504 31772 32802 30821 
30765 29922 30338 31219 
31165 30928 31164 33724 
34174 34172 34427 33485 
33477 33441 33817 33403 
33366 33349 33362 32918 
32898 36962 32876 32501 
32458 30797 32849 32774 
32477 31777 32771 30641 
30764 29909 30557 31148 
31207 30953 31494 33766 
33926 33936 34193 33456 
33485 33449 33518 33159 
33394 33346 33386 32907 
32923 36955 32854 32778 
32476 30811 32832 32490 
32497 31756 32791 30612 
30760 29939 30339 31164 
31177 30915 31182 34076 
33934 33948 34188 33440 
33483 33434 33458 33384 
33345 33359 32909 32917 
33078 36954 31421 32786 
32526 30405 30078 32456 
32002 31204 29118 30651 
30998 30291 29182 31192 
30853 31036 28821 33471 
29515 29723 28611 33331 
29523 29176 28546 31364 
29147 28902 28390 30075 
29282 27925 27051 28734 
27783 28019 27388 28795 
27847 27916 27657 28578 
28184 27639 27573 28765 
27857 27546 27621 28678 
27777 27752 27955 28387 
27780 27742 27784 28315 
27989 27698 27892 28521 
27963 26463 26788 27260 
26646 26982 27323 27387 
26854 27204 27647 27629 
27396 27299 28249 28016 
27487 27583 28493 27844 
27328 28033 28553 28052 
27746 28930 28924 28295 
27986 29538 29441 28734 
28251 28983 28305 27540 
27545 28952 28629 27798 
28980 28678 29360 27877 
30158 28531 31150 27873 
31765 28567 32987 27887 
32522 30227 34034 28051 
32517 32115 34202 28461 
31725 33590 33966 28626 
31328 34295 34190 30063 
30544 33498 34317 31997 
31522 32502 34086 33861 
32850 32167 33448 34607 
33760 32745 33375 34241 
34453 33882 32932 33532 
34864 34303 32925 32698 
34674 34914 32990 32339 
34315 35346 33549 32055 
34126 34518 33614 32385 
33694 34228 33695 33568 
33774 34423 33921 34384 
33779 34013 33743 34466 
33439 33430 32997 34380 
32728 32838 32371 33661 
32308 32115 31799 32727 
31624 31181 31173 32162 
31385 31418 31693 32160 
32080 32103 32534 32614 
32547 32582 32738 32654 
32715 32729 33014 33136 
32926 32927 32995 32910 
33151 33137 33048 33055 
32762 33026 32652 32716 
32701 32908 33083 33009 
32990 33165 33400 33644 
33551 33795 33804 34108 
33831 34115 34094 34568 
34137 34427 34310 34725 
34360 34626 34393 34982 
34239 34529 34212 35215 
34639 34924 34303 35688 
34509 35595 34801 36629 
35356 35209 34905 36470 
35045 35263 34777 36240 
35383 35686 34994 36624 
35695 35755 35643 36579 
35777 36055 35715 36942 
36037 36295 36024 36806 
36274 36487 36239 37136 
36513 37769 37714 38235 
37768 37514 37401 37508 
37556 37714 37419 37498 
37356 37661 37049 37065 
37347 37699 37103 37061 
37375 37741 37403 37228 
37365 37723 37395 37144 
37339 37358 37058 37129 
37343 38635 38233 38432 
38548 38993 37344 38196 
38251 37309 37155 34577 
38058 33332 36847 33293 
35228 32799 34715 34743 
36118 34704 35733 33921 
34491 34072 34474 33642 
33879 33270 33899 33281 
33195 36821 33141 32815 
32887 30611 32758 32786 
32818 31787 32881 30644 
30802 29919 30375 31194 
31196 30922 31217 34055 
33933 33957 34194 33447 
33490 33425 33806 33375 
33368 33360 33357 32916 
32896 36977 32645 32772 
32500 30781 32840 32493 
32467 31776 32775 30634 
30759 29902 30552 31180 
31215 30973 31490 34050 
33935 33932 34198 33458 
33466 33443 33511 33393 
33390 33333 33387 32896 
32906 36976 32861 32511 
32470 30808 32833 32495 
32488 31752 32791 30816 
30737 29933 30339 31202 
31210 30935 31178 33830 
34172 34165 34424 33825 
33459 33439 33796 33187 
33391 33344 33380 32932 
33146 36986 32890 32808 
32505 30795 32838 32506 
32492 31769 32778 30839 
30723 29894 30563 31195 
31491 31233 31224 33763 
34173 33924 34418 33484 
33481 33428 33811 33392 
33386 33347 33352 32917 
33135 36984 32832 32769 
32465 30797 32466 32510 
32410 31771 32359 30601 
30775 29894 30445 31212 
31222 30937 31031 33771 
33019 33842 28911 33408 
31387 32393 29200 33349 
30381 30862 28914 33109 
30309 29481 28276 31910 
29258 29285 28147 30758 
28821 28660 28224 30784 
28817 28727 28169 28858 
28790 28130 28004 28468 
28362 28216 27985 28408 
28499 27867 27986 28750 
28125 28016 27967 28719 
28257 26737 26583 27331 
26984 26879 27124 27642 
27011 27255 27295 27782 
27268 27400 27572 27814 
27333 27422 27951 27804 
27350 27301 28172 27881 
27700 27544 28476 28237 
27738 27879 28588 28131 
27582 27916 28337 27372 
26524 28840 29155 28149 
27364 29700 29406 28577 
28051 29767 29553 28614 
28642 29089 29251 28721 
29348 28658 29171 28359 
30540 28370 30435 28494 
31574 28341 32540 28433 
32295 28966 34572 27118 
31934 31335 34582 27925 
31586 32955 33980 28490 
30991 34069 34053 29394 
30729 33875 34113 31188 
31351 33074 34105 33096 
32569 32550 33679 33936 
33522 32830 33419 34270 
34640 34134 33163 34027 
35618 34461 32917 33359 
35179 34740 32919 32472 
34596 34894 33289 32567 
34150 34654 33573 32698 
33769 34300 33769 33415 
34121 34617 34410 34371 
34151 34263 34305 34637 
33525 33880 33394 34215 
32790 32497 32294 33578 
32022 31666 31576 32890 
31405 31535 31212 32513 
31434 31565 31484 32130 
32029 31662 32318 32242 
32255 32189 32671 32476 
32677 32664 33332 32689 
32934 33308 33246 33112 
32964 32904 33113 33036 
32751 32755 32858 33060 
32708 33053 32666 33288 
32948 33396 33023 33446 
33584 33801 33429 34113 
33677 34172 34074 34246 
33949 34202 34318 34839 
34394 35178 34871 35512 
34722 35156 34487 35558 
34892 35156 34636 35581 
34502 35084 34186 35856 
34486 35091 34395 35947 
34550 35173 34277 35777 
34769 35393 34882 35997 
35384 35484 35329 36252 
35539 36788 36725 37577 
37130 36804 36512 37661 
37200 37233 36738 37297 
37163 37021 36743 37488 
37006 37412 36831 37469 
37073 37495 36852 37083 
37078 37492 37175 37069 
37387 37295 36994 37069 
37474 38783 38518 38450 
38732 38079 37871 37809 
38408 38228 37789 38309 
37877 39281 37582 37849 
38193 37394 38155 37095 
37995 37245 37031 35661 
38432 35422 37266 34182 
37037 33963 36416 33661 
35361 37103 34494 32724 
33826 30994 33809 32886 
33305 31858 33286 30682 
31069 29951 30847 31215 
31571 30939 31586 33777 
34000 34154 34220 33410 
33443 33445 33807 33361 
33386 33373 33172 32962 
32928 36752 32649 32789 
32791 30818 32850 32782 
32491 31760 32810 30842 
30774 29942 30591 31220 
31198 30920 31163 34053 
33937 33931 34213 33435 
33484 33446 33520 33396 
33367 33359 33383 32902 
32902 36975 32890 32771 
32478 30786 32825 32498 
32475 31772 32780 30629 
30750 29913 30566 31163 
31206 30966 31493 34062 
33940 33951 34424 33468 
33473 33425 33802 33371 
33390 33335 33376 32923 
33136 36971 32869 32500 
32508 30801 32830 32772 
32486 31764 32799 30823 
30742 29918 30591 31213 
31222 30954 31185 33720 
34163 34163 34418 33477 
33468 33434 33793 33156 
33370 33349 33367 32929 
32906 36980 32883 32500 
32499 30790 32839 32777 
32462 31756 32487 30642 
30742 29912 30532 31140 
31191 30960 31218 33770 
34162 33927 33742 33466 
33618 33623 32079 33406 
33102 33144 30209 33125 
32310 32445 28798 32491 
30327 30125 28651 32418 
29820 29428 28795 30996 
30020 29785 28547 31334 
29444 29051 28496 31012 
28998 28369 28153 29798 
28981 28311 28229 29111 
28545 28127 27852 28880 
28331 26775 26574 28031 
27054 27109 27082 28262 
27272 27448 27488 28093 
27745 27509 27735 28077 
27747 27482 27572 28057 
27762 27274 27992 28088 
27565 27368 27858 28061 
27585 27700 28252 28037 
27565 26650 27457 27217 
26356 27423 28223 27728 
26773 27808 28744 27848 
27468 28581 29093 28486 
27763 29317 29749 28562 
27893 29691 29570 29028 
28396 29814 29356 28998 
29189 29155 29162 28610 
29624 27942 29178 27291 
30744 28214 31596 27604 
31845 28835 33169 27843 
31965 31020 34016 28268 
32006 32642 33944 28470 
31189 33745 33673 28888 
30985 34091 33710 30534 
30853 33407 34096 32287 
32006 32526 34398 34403 
33804 32841 33726 34837 
34460 33409 33552 34255 
34738 34389 32942 33443 
34864 34826 33069 32647 
34199 34868 33109 32129 
33741 34648 33296 32278 
33442 34379 33606 32445 
33482 34532 34297 34077 
34355 34456 34564 34684 
34154 34316 33722 34664 
33206 33183 32699 34109 
32623 32221 32012 33379 
32018 31856 31555 32815 
31792 31375 31360 32513 
31630 31788 32042 32212 
31952 31958 32779 32511 
32797 32482 32942 33092 
33123 33025 33318 33283 
33143 33032 33063 32980 
32701 32869 32488 33090 
32824 32776 32404 33044 
32863 32688 32657 32946 
32900 33348 33395 33573 
33542 33999 34353 34609 
34379 34592 34601 34709 
34561 34865 34680 34983 
34639 34706 34656 35293 
34498 35126 34432 35570 
34843 34952 34626 35942 
34881 34957 34585 35732 
34910 34994 34625 35836 
34796 36150 35323 37206 
36146 35992 35571 37162 
36372 36299 36027 37234 
36298 36526 36292 37102 
36581 36811 36591 37463 
36788 37003 36977 37435 
37138 37079 36778 37398 
37231 37400 36797 37092 
37071 38399 38164 38104 
38298 38237 37741 37617 
38232 37844 37680 37339 
37941 37978 37461 37284 
37620 37845 37464 37088 
37731 37600 37200 37075 
37694 37877 36794 37735 
37648 37726 36556 36255 
37711 39368 37351 34538 
38405 31923 36989 33461 
35513 32186 35661 32482 
32321 30488 32332 32014 
31995 31332 32315 32757 
34282 33979 34860 33173 
33917 33468 33782 32998 
33218 33379 33239 33103 
32958 36737 32681 32465 
32776 30805 32894 32480 
32495 31763 32789 30635 
30783 29930 30342 31157 
31185 30917 31198 33772 
34172 33928 34195 33446 
33498 33439 33516 33162 
33357 33359 33372 32903 
32907 36983 32884 32501 
32491 30803 32820 32781 
32503 31753 32803 30622 
30755 29909 30576 31147 
31180 30935 31205 34065 
34170 33956 34185 33457 
33476 33429 33807 33380 
33399 33339 33365 32913 
33146 36986 32891 32783 
32427 30773 32833 32481 
32472 31781 32506 30610 
30761 29909 30336 31202 
31510 30969 31214 33782 
33953 33926 34193 33454 
33478 33465 33517 33394 
33373 33339 33387 32897 
32902 36969 32857 32509 
32469 30802 32819 32775 
32492 31486 32799 30599 
30762 29924 30591 31175 
31184 30942 31171 33810 
33924 33921 34424 33828 
33444 33446 33466 33175 
33369 33335 33297 32941 
33094 36987 32335 32811 
32561 30418 31029 32780 
31914 31508 29426 30614 
30697 30245 29617 31172 
31289 30898 28911 33904 
30033 30127 28634 33251 
29648 29610 28967 32600 
29712 29482 28777 30721 
29183 27897 27425 28646 
28221 28191 27722 28998 
28142 27864 27526 28943 
28073 28016 27554 28580 
28213 27908 27597 28769 
28173 27631 27984 28796 
28163 27622 27831 28693 
27842 27563 27894 28359 
28016 26275 26773 27109 
26691 26983 27315 27587 
27235 27031 27612 27628 
27412 27519 27882 28007 
27266 27530 28138 27875 
27381 28200 28738 28065 
27554 28745 28818 28513 
27944 29294 29070 28677 
27849 28779 28456 27663 
27028 28587 28408 27843 
28191 28359 28641 27786 
29257 28137 29924 27793 
30810 28458 31967 28017 
32266 29469 33878 27845 
32652 31151 34288 28254 
32429 33134 34411 28479 
31686 34300 34282 28789 
30429 33791 34215 30930 
30879 33082 34345 32958 
32290 32544 34057 34257 
33537 32895 33645 34941 
34394 33446 33344 34269 
34468 34406 32926 33425 
34677 34821 32903 32854 
34383 35339 33350 31915 
33968 34528 33376 32373 
33887 34348 33612 33045 
33897 33983 33692 33831 
33720 34169 33768 34030 
33794 33801 33585 33947 
32958 33037 32511 33623 
32254 31984 32033 32706 
31708 31160 31179 32322 
31574 31604 31812 32276 
31711 31737 32361 32185 
32175 32214 32835 32451 
32853 32641 33116 32708 
33105 33146 33150 33053 
33119 32897 32730 32722 
32756 33049 32860 32684 
32693 33124 33064 32957 
32972 33372 33405 33601 
33537 33516 33814 34060 
33846 34079 34049 34260 
34116 34389 33995 34911 
34349 34626 34315 35172 
34224 34495 34363 35359 
34602 34911 34229 35321 
34493 35689 34810 36248 
35428 35314 34728 36436 
35335 35641 34789 36458 
35452 35532 35059 36609 
35498 36109 35700 36899 
36106 36429 35815 36782 
36387 36680 36393 37181 
36652 36900 36633 37051 
36875 38194 37917 38517 
38178 37929 37358 37838 
37976 37893 37634 37579 
37759 37569 37490 37650 
37747 37595 37297 37370 
37756 37620 37271 37481 
37701 37535 37256 37413 
37669 37528 37484 37428 
37707 38849 38482 38942 
38650 39249 37609 38218 
38382 36926 37709 34068 
37607 32817 36221 33064 
35103 32559 34326 34883 
35958 34838 35536 34111 
34624 33747 34271 33581 
33882 33243 33488 33015 
33389 36788 33098 32804 
32876 30846 32698 32801 
32797 31791 32862 30841 
30800 29926 30373 31204 
31214 30954 31201 33733 
34170 34170 34420 33480 
33470 33427 33797 33407 
33374 33355 33372 32923 
32908 36974 32879 32503 
32492 30798 32850 32773 
32481 31765 32779 30645 
30759 29901 30564 31143 
31179 30942 31222 33781 
34162 33932 34192 33454 
33485 33464 33526 33397 
33393 33330 33395 32906 
32914 36980 32862 32787 
32489 30801 32812 32494 
32486 31753 32798 30592 
30736 29933 30339 31175 
31182 30929 31182 34068 
33928 33932 34193 33441 
33490 33447 33529 33397 
33387 33352 33382 32917 
33139 36974 32889 32500 
32511 30796 32849 32500 
32465 31782 32511 30625 
30754 29898 30567 31161 
31221 30960 31222 34053 
33938 33949 34428 33469 
33462 33434 33797 33372 
33381 33329 33358 32931 
33126 36972 32819 32490 
32477 30806 32497 32771 
32448 31772 32581 30835 
30778 29916 30420 31207 
31182 30926 31284 33723 
33634 33710 29970 33448 
31967 33032 29328 33172 
30796 31408 29183 33135 
30115 29335 28448 32537 
29077 29441 28291 31453 
29269 28817 28437 30999 
29215 28659 28060 29930 
28670 28293 27867 28287 
28697 28071 27782 28312 
28299 28186 27988 28758 
28460 27840 28028 28776 
28073 26577 26924 27725 
26813 27234 27478 28023 
27094 27085 27675 27896 
27340 27443 27932 28174 
27650 27473 27785 28168 
27688 27316 28217 28256 
27765 27763 28418 28282 
27559 28000 28412 28076 
27603 27449 27879 27453 
26745 28306 28669 27840 
27101 29066 29259 28482 
27948 29567 29292 28368 
28141 29065 28803 28308 
28953 28964 28865 28514 
29613 28689 30018 28150 
31097 28336 31857 28069 
31946 28324 33986 27238 
32623 30651 34432 27749 
32048 32674 34240 28231 
31326 33776 34322 29204 
30826 34078 34358 30700 
30867 33324 34306 32787 
31949 32399 34060 34087 
33183 32420 33655 34601 
34364 33797 32985 34584 
35213 34217 32728 33581 
35092 34861 32735 32812 
34585 34557 33143 32174 
34149 34618 33158 32598 
33689 34207 33854 32981 
33768 34287 34342 33775 
34148 34581 34243 34258 
33746 34341 33707 34485 
32987 32991 32788 33684 
32355 32268 31840 32976 
31856 31756 31500 32804 
31477 31368 31363 32404 
31700 31630 32102 32451 
32365 32316 32451 32871 
32804 32787 32912 33058 
33107 32950 33235 33287 
32973 33109 32919 32932 
32758 32658 32863 33119 
32894 32643 32851 32995 
33044 33148 33123 33579 
33380 33550 33258 33725 
33467 33692 33885 34344 
33763 34027 34157 34450 
33980 34747 34455 35616 
34544 34736 34566 35619 
34477 34758 34221 35681 
34601 34695 34034 35708 
34285 34905 34169 35492 
34567 34932 33949 35561 
34490 35128 34273 35765 
35133 35229 34770 36022 
35298 36571 36247 37707 
36763 36914 36720 37305 
36794 37178 36952 37449 
37132 36996 36825 37472 
37028 37445 37009 37272 
37424 37313 37116 37498 
37480 37633 37429 37461 
37256 37647 37496 37471 
37326 38654 38530 38389 
38595 38474 38056 38205 
38506 38024 38208 38685 
38190 38718 37956 38214 
38182 38512 37855 37402 
37998 37603 37029 35688 
37839 35875 37107 34412 
37882 34272 36664 33428 
36141 37487 35130 32707 
34320 31042 33747 32857 
33253 31657 33358 30659 
30894 29943 30667 31213 
31425 31259 31397 34058 
34037 33973 34268 33470 
33508 33448 33843 33375 
33160 33332 33395 32923 
32901 36974 32864 32495 
32508 30799 32841 32781 
32491 31768 32799 30831 
30769 29931 30345 31222 
31188 30936 31178 33712 
34160 34169 34409 33477 
33488 33434 33807 33397 
33363 33363 33298 32929 
32897 36973 32654 32500 
32493 30773 32867 32771 
32482 31766 32778 30632 
30748 29913 30573 31146 
31178 30931 31204 33783 
33928 33937 34210 33457 
33478 33470 33535 33397 
33399 33341 33393 32910 
32901 36978 32862 32776 
32488 30799 32829 32501 
32489 31758 32792 30607 
30778 29921 30580 31162 
31165 30927 31182 34066 
34175 33948 34204 33451 
33491 33445 33535 33395 
33389 33366 33369 32913 
32898 36965 32886 32773 
32498 30788 32848 32495 
32459 31784 32511 30610 
30751 29895 30569 31172 
31224 30960 31227 34052 
33930 33947 33969 33466 
33624 33645 32893 33391 
32949 32912 30740 33119 
32551 32988 28767 32429 
30411 30233 28795 32405 
29815 29534 28359 30988 
29920 29804 28718 31105 
29449 28831 28465 30973 
29033 28388 28075 29789 
29020 28327 28184 29171 
28574 28441 27852 29251 
28406 26843 26589 27874 
27073 27400 27115 28468 
27726 27271 27339 28449 
27542 27297 27753 28429 
27541 27282 27600 28120 
27531 27291 27992 28133 
27587 27339 27852 28087 
27554 27359 28199 28068 
27585 26288 27036 26866 
26261 27247 28030 27688 
26806 27537 28476 28000 
27426 28307 29034 28050 
27676 29068 29456 28367 
28015 29652 29413 28627 
28480 29694 29324 28661 
28949 29325 29162 28556 
29543 27841 29442 27460 
29887 28248 31551 27553 
31180 29026 33232 27969 
32109 30672 34382 27890 
32092 32839 34219 28417 
31375 33713 34038 28880 
30969 34131 34321 30372 
31114 33260 34333 32148 
31975 32770 34044 34568 
33688 33085 33448 34903 
34647 33880 32988 34245 
34546 34431 32724 33628 
34618 34479 32720 32511 
34003 34667 33147 32275 
33875 34384 33385 31957 
33611 34078 33630 32635 
33601 34392 34180 33743 
34004 34286 34633 34828 
34011 34231 33983 34812 
33812 33857 33283 34669 
33034 32677 31987 33916 
32291 31906 31606 32898 
31616 31765 31218 32403 
31789 31452 31781 32183 
32004 31687 32208 32547 
32241 32515 33026 32652 
32703 32678 33319 32918 
33141 33077 32931 32982 
33089 32743 32876 32917 
32688 32880 32467 33105 
32670 32667 32854 32932 
33085 32950 33000 33235 
33171 33772 34156 34408 
33929 34386 34417 34535 
34406 34680 34588 35129 
34250 34820 34581 35428 
34620 34711 34585 35697 
34477 34806 34290 35549 
34511 35076 34218 35862 
34519 35073 34431 35891 
34855 35529 35113 36874 
35700 35577 35069 36562 
35933 36131 35509 36891 
36142 36403 36098 36776 
36464 36730 36451 37217 
36489 36986 36693 37230 
36921 37126 36577 37229 
36802 37237 36926 37199 
37177 38502 38151 38075 
38483 38150 37545 37752 
37788 38008 37741 37645 
37912 37924 37679 37336 
37574 37995 37689 37252 
37618 37628 37318 37501 
37710 37939 37386 37947 
37750 38480 37215 37178 
37718 41186 37982 35050 
39522 33116 37485 33686 
36817 32883 36128 31134 
33072 30441 32582 31474 
32573 31178 32169 33939 
34507 34328 34737 33488 
33730 33486 34085 33174 
33279 33398 33250 32938 
32981 36737 32698 32509 
32788 30799 32878 32493 
32495 31762 32797 30641 
30764 29912 30575 31163 
31198 30947 31227 34058 
33933 33958 34179 33469 
33474 33443 33529 33384 
33402 33332 33382 32901 
33144 36978 32878 32781 
32480 30761 32840 32506 
32496 31760 32787 30816 
30750 29940 30347 31203 
31219 30957 31175 33819 
34159 33921 34413 33817 
33469 33434 33806 33186 
33387 33353 33378 32946 
33136 36984 32888 32482 
32630 30800 32818 32778 
32783 31766 32793 30640 
30760 29903 30556 31166 
31493 30966 31216 33774 
33921 33924 34177 33458 
33512 33428 33528 33155 
33372 33360 33382 32915 
32910 36978 32641 32793 
32509 30783 32840 32494 
32470 31783 32773 30623 
30741 29883 30560 31167 
31205 31235 31222 33788 
33928 33937 34422 33460 
33461 33437 33471 33378 
33374 33338 32926 32929 
33073 36976 31844 32506 
32579 30438 30278 32498 
31899 31550 29138 30623 
30718 30285 29460 31224 
30965 31085 28844 33524 
29790 30279 28619 33546 
29778 29588 28968 32377 
29404 29501 28794 30503 
29173 28196 27463 28638 
28264 28208 27712 28599 
28260 27784 27676 28584 
28280 27943 27538 28713 
28171 27551 27545 28345 
27826 27733 27596 28317 
27799 27717 27926 28518 
27992 27685 28023 28472 
27968 26409 26916 27193 
26640 26913 27434 27350 
26850 26856 27764 27591 
27118 27449 27841 27951 
27484 27687 28095 28021 
27291 27827 28683 28218 
27698 28687 28821 28459 
27632 29141 29508 28706 
27900 29276 28978 27952 
27531 29126 29278 28263 
28948 29046 29731 28071 
29946 28762 30855 28032 
31350 28384 32846 28260 
31884 29085 33773 28108 
32366 31054 34386 28478 
32073 32829 34104 28746 
31503 34416 34055 29237 
30477 34063 34058 31148 
31102 33111 34083 32949 
32354 32204 33865 33978 
33411 32486 33576 34420 
34292 33578 33356 33863 
34879 34386 33003 33047 
34541 34853 33010 32141 
34232 35371 33191 32044 
34020 34540 33176 32555 
33871 34307 33603 33169 
33809 34168 33676 34357 
33729 34030 33941 34759 
33735 34136 33892 34773 
33257 33253 33113 34208 
32831 32455 32326 33655 
31983 31824 31363 32675 
31762 31848 31662 32462 
32059 31894 32135 32788 
32203 32571 32881 33038 
32643 32746 32979 33326 
32952 33290 33393 33231 
33321 33351 33289 33212 
32946 32960 33077 33359 
33051 32896 32734 33575 
33118 33002 33137 33500 
33311 33571 33218 34171 
33601 33892 33508 34573 
33906 33975 33773 34715 
34171 34214 34148 35191 
34344 34603 33962 35356 
34212 34485 34306 35266 
34575 35400 34528 36447 
35169 35006 34598 36193 
34743 34995 34581 36124 
34700 35023 34438 36202 
34946 35313 35081 36421 
35289 35897 35202 36309 
35877 36192 35567 36718 
36199 36233 36182 36600 
36471 37530 37461 37831 
37606 37367 37022 37375 
37642 37668 37090 37428 
37491 37320 37045 37059 
37288 37668 37424 37383 
37362 37732 37248 37064 
37357 37747 37277 37044 
37361 37709 37320 37386 
37634 38969 38671 39265 
38596 38681 37871 37923 
38475 38723 37537 33425 
39079 33997 38266 32834 
36611 32912 35692 34438 
36723 35171 36378 34061 
34802 33956 34694 33537 
34063 33575 33750 33005 
33256 36853 32937 32802 
32690 30606 33034 32790 
32833 31784 32658 30594 
30828 29946 30385 31206 
31197 30924 31190 34059 
33930 33944 34214 33446 
33488 33448 33532 33394 
33369 33371 33389 32900 
32912 36974 32879 32789 
32479 30786 32831 32492 
32478 31762 32783 30633 
30749 29900 30572 31163 
31192 30962 31230 34052 
33941 33960 34177 33470 
33473 33435 33805 33377 
33397 33336 33360 32915 
33135 36976 32889 32502 
32501 30805 32815 32771 
32496 31752 32790 32280 
30777 29908 30574 31746 
31170 30960 31492 32690 
34125 34147 34421 33371 
33460 33458 33511 32972 
33152 33330 33397 33087 
32904 36739 32865 32490 
32501 30801 32830 32769 
32503 31747 32805 30595 
30728 29906 30582 31160 
31221 31238 31210 33748 
34166 33938 34414 33468 
33468 33433 33793 33394 
33390 33342 33343 32911 
33150 36981 32842 32785 
32456 30792 32496 32469 
32461 31771 32529 30609 
30755 29900 30393 31213 
31196 30946 30962 33773 
33469 33735 29324 33428 
32283 33064 29106 33386 
30801 31364 29241 33117 
30312 29559 28062 32149 
29277 29146 28491 31532 
29299 28846 28136 30685 
28919 28604 28214 29803 
28625 28486 27786 28038 
28689 28283 28010 28302 
28297 27867 27989 28690 
28143 28004 27978 28413 
28255 26651 26519 27483 
26908 27007 27073 27940 
27119 27181 27298 27956 
27486 27251 27687 27996 
27296 27027 27523 27956 
27293 27066 27641 27993 
27382 27509 27867 27812 
27686 27688 28102 27879 
27725 26767 27747 26803 
26455 27892 28359 27530 
27140 28898 29270 28227 
27741 29710 29327 28496 
28131 29365 29425 28512 
29073 29298 30223 28542 
30552 28990 31558 28464 
31457 28930 33088 28455 
32515 29562 34666 27436 
32527 31829 34184 28254 
31636 33195 33686 29016 
30878 33770 33527 30193 
30734 33605 33909 31883 
30956 32497 33700 33407 
32350 32336 33851 33751 
33567 32495 33615 33703 
34193 33948 33402 33379 
35455 34857 32981 32780 
34774 35112 32955 32521 
34561 34744 33331 32469 
34139 34683 33261 32998 
33884 34384 33808 33914 
33676 34379 33987 34660 
34168 34573 34566 35144 
33931 34458 34180 35633 
33454 33462 32965 34588 
32782 32423 31909 33616 
32056 31702 31538 32672 
31467 31380 31181 32573 
31486 31425 31455 32202 
32036 31735 32260 32595 
32187 32159 32823 32833 
32819 32881 33307 32915 
33090 32672 32904 33130 
32707 32815 32871 33051 
32845 32492 32772 33091 
32705 32733 32753 33343 
33281 33400 33174 33473 
33643 33857 33858 34117 
33742 33989 34162 34229 
34007 34799 34553 35226 
34887 34809 34452 35232 
34556 35122 34677 35708 
34825 35164 34606 35573 
34854 35188 34281 35944 
34869 34950 34255 35751 
34728 35070 34453 36167 
35006 35322 35108 36407 
35637 36607 36247 37513 
36759 36932 36632 37475 
36969 36840 36881 37278 
36839 37228 36770 37477 
37215 37119 37160 37471 
37029 37452 37175 37076 
37057 37470 37159 37017 
37110 37258 37209 37227 
37440 38538 38464 38130 
38768 38121 37772 37553 
38256 37875 37593 38042 
37836 38356 37712 38220 
37791 38436 37369 37222 
37895 37527 36839 35562 
37908 35891 36532 34662 
38154 34243 36483 33441 
36406 37257 35996 32748 
34290 31070 34471 32872 
33609 31617 33795 30660 
30931 30219 31081 31191 
31445 31263 31755 33773 
34031 33963 34561 33480 
33511 33439 33869 33389 
33182 33329 33160 32930 
32912 36991 32894 32772 
32492 30798 32849 32494 
32475 31759 32775 30595 
30766 29924 30358 31206 
31224 30961 31187 33789 
33922 34166 34190 33433 
33483 33447 33522 33159 
33361 33353 33379 32896 
32912 36977 32862 32503 
32477 30807 32828 32782 
32500 31478 32797 30614 
30763 29924 30590 31170 
31182 30932 31183 34055 
33923 33963 34204 33453 
33474 33430 33797 33390 
33375 33346 33363 32908 
32897 36979 32878 32503 
32493 30790 32846 32491 
32480 31780 32773 30597 
30727 29884 30559 31180 
31209 31233 31231 33849 
34167 34157 34180 33809 
33479 33444 33521 33203 
33387 33351 33362 32932 
32915 36984 32842 32510 
32467 30815 32826 32778 
32504 31753 32507 30597 
30749 29919 30577 31209 
31215 30915 31192 33745 
33920 33928 34071 33459 
33649 33656 32189 33164 
32980 33009 30557 33136 
32498 35149 29053 32791 
31270 30122 28896 32773 
30271 29728 28822 30616 
30657 30556 28818 31127 
29343 28846 28544 32688 
28805 28354 28378 30379 
29028 28402 28438 29754 
28990 28543 28054 29141 
28795 27226 26988 27895 
27447 27499 27438 28499 
27540 27332 27358 28137 
27600 27361 27752 28420 
27587 27311 27570 28105 
27601 27327 27962 28115 
27631 27382 27812 28070 
27615 27652 27870 28270 
27578 26427 26800 26755 
26256 26772 27744 27365 
26827 27500 28216 27775 
27075 27781 28696 27783 
27507 28762 29256 28058 
27742 29500 29433 28401 
27886 29637 29573 28591 
28342 29767 29741 28599 
29201 28137 29071 27351 
29770 28122 31055 27941 
30954 28357 32656 27800 
31889 30016 34051 28196 
32330 31712 34015 28120 
31632 33206 33720 28579 
31287 34081 33684 29822 
30699 33531 34099 31506 
31347 32841 34430 33534 
32891 32456 33723 34287 
34050 33358 33554 34591 
34498 34165 32995 33664 
34918 34501 33094 33065 
34673 34930 32902 32179 
33992 34515 33308 31915 
33871 34417 33207 32364 
33657 34431 34121 33560 
34125 34198 34401 34421 
33952 34193 34342 34708 
33681 33730 33609 34547 
32994 33131 32589 34123 
32196 32288 31820 33323 
31683 31798 31561 32484 
31782 31418 31774 32196 
31685 31803 32318 32182 
32342 32373 32645 32491 
32833 32817 32995 33090 
33106 33102 33328 33290 
32918 33121 33121 33284 
33063 33026 32640 32962 
32737 32763 32893 32985 
33054 32960 32912 33217 
33334 33693 33721 34389 
34087 34317 34034 34473 
34315 34640 34226 35114 
34229 34824 34575 35431 
34659 34754 34642 35710 
34835 35179 34677 35862 
34924 34995 34670 35960 
34743 35039 34649 35759 
34796 35785 34972 36759 
35873 35738 35046 36495 
35869 36168 35591 36889 
35825 36387 35946 36963 
36353 36680 36024 37124 
36350 36897 36237 36845 
36514 36761 36651 37142 
36938 37145 36551 37126 
36832 38415 37766 38253 
38138 37837 37689 37675 
37961 37937 37370 37296 
37588 37600 37329 37485 
37746 37922 37293 37380 
37523 37535 37466 37079 
37353 37550 37240 37501 
37370 38235 36857 37509 
37656 41356 37935 35736 
39515 32974 37356 34335 
37419 32722 36724 31365 
33281 30436 33114 31817 
32475 31497 32501 33774 
34530 34042 35098 33891 
34054 33506 34124 33256 
33543 33385 33564 32949 
32999 36742 32705 32788 
32769 30822 32647 32769 
32511 31769 32812 30633 
30787 29928 30348 31179 
31171 30905 31170 33752 
33926 33927 34199 33466 
33493 33455 33525 33159 
33370 33349 33384 32899 
32910 36979 32876 32509 
32471 30799 32843 32783 
32484 31745 32792 30594 
30782 29935 30578 31166 
31167 30916 31176 34063 
33920 33955 34199 33450 
33483 33434 33808 33395 
33387 33345 33365 32923 
32899 36983 32880 32507 
32438 30784 32848 32484 
32470 31770 32508 30618 
30745 29894 30577 31194 
31214 31249 31222 34050 
33977 33927 34188 33451 
33470 33456 33533 33379 
33384 33339 33386 32908 
32901 36968 32864 32511 
32485 30813 32828 32775 
32487 31481 32784 30831 
30752 29939 30348 31211 
31203 30918 31166 33802 
34154 33920 34411 33815 
33465 33452 33481 33178 
33296 33003 32954 32898 
33066 36767 32305 32486 
32600 30393 31101 32485 
32341 31596 29419 30612 
30624 29931 29585 31163 
31307 30883 28853 33703 
30241 31087 28626 33572 
30042 30259 29032 32712 
29611 29815 28635 31592 
29352 28508 27325 28911 
28461 28493 27596 28887 
28308 28079 27607 28800 
28452 28180 27598 28620 
28079 28021 27604 28757 
28252 27979 27954 28756 
28237 27943 27799 28683 
27897 27638 27837 28345 
27815 26331 26970 27080 
26735 26760 27497 27555 
27260 27240 27743 27563 
27411 27420 27905 27643 
27511 27310 27840 27983 
27353 27622 28422 27884 
27731 28091 28777 28287 
27588 28942 28923 28488 
28013 28667 28781 27670 
27024 29300 29190 28230 
28111 28898 29471 28242 
29453 28574 30180 28253 
30728 28316 32106 28176 
31848 28748 33591 28236 
32194 29992 34307 28115 
32179 31864 33955 28308 
31670 33705 33747 28431 
30404 34026 33686 30203 
30736 33617 33767 32199 
31604 32455 33698 33872 
32673 32170 33485 34221 
34071 33033 33261 33944 
34461 33908 33376 33212 
34891 34591 33300 32480 
34469 35227 33194 31876 
34612 35073 33173 32153 
34078 34287 33247 33096 
33857 34005 33805 33727 
33729 34340 33934 34524 
34083 34306 34096 34758 
33508 33837 33220 34676 
33127 33046 32618 33913 
32151 31706 31579 32757 
31370 31405 31364 32593 
31483 31470 31691 32215 
32046 32049 32195 32386 
32232 32231 32664 32666 
32891 32650 32942 33136 
33118 33116 32977 32930 
33128 33127 33096 33103 
32747 33080 32725 32901 
33029 33145 33095 33349 
32954 33162 33403 33509 
33258 33478 33481 33960 
33830 34076 33747 34679 
34117 34359 33958 34734 
34305 34281 34024 34956 
34192 34438 34383 35406 
34596 35419 34721 36410 
35023 35348 34830 36185 
35112 35353 34494 36147 
34808 35348 34542 36222 
34973 35319 35073 36460 
35277 35866 35429 36349 
35571 36149 35529 36539 
36163 36428 36133 36948 
36458 37758 37435 38195 
37561 37328 37222 37656 
37254 37287 37182 37498 
37475 37295 37169 37068 
37478 37364 37225 36998 
37487 37373 37229 37147 
37476 37361 37244 37121 
37253 37634 37019 36829 
37299 38573 38134 38086 
38761 38430 37720 37828 
38254 38392 37418 36376 
38534 35911 37982 34154 
37935 34110 36980 35234 
37014 35660 35777 34393 
35324 34425 35641 33477 
34430 33434 34513 33337 
33660 37241 33449 32849 
32758 30823 33010 32781 
32893 31790 33025 30621 
30814 29913 30721 31496 
31524 31240 31523 33814 
34173 34168 34191 33794 
33500 33432 33804 33200 
33370 33361 33373 32936 
32904 36815 32873 32782 
32500 30754 32853 32511 
32489 31745 32779 30642 
30754 29897 30577 31161 
31186 30913 31176 33761 
34173 33924 34210 33436 
33490 33448 33520 33165 
33364 33367 33376 32907 
32916 36813 32875 32507 
32490 30757 32832 32781 
32505 31470 32808 30610 
30761 29906 30585 31175 
31182 30918 31189 34053 
34167 33963 34189 33453 
33480 33435 33804 33391 
33382 33336 33377 32916 
33147 36816 32875 32783 
32496 30737 32846 32487 
32478 31754 32511 30611 
30739 29899 30573 31188 
31509 30968 31489 33778 
33925 33923 34428 33458 
33452 33449 33531 33385 
33379 33338 33383 32899 
33137 36804 32829 32509 
32465 30743 32786 32770 
32482 31469 32461 30844 
30721 29930 30342 31195 
31492 30930 31151 33809 
33776 34082 31565 33803 
33339 33244 29882 33187 
32265 32493 29425 32954 
30978 30356 28502 32481 
29560 29692 28691 32135 
29466 29170 28538 31031 
29170 29250 28113 30710 
28826 28769 28180 28742 
28581 28493 27827 28571 
28696 28081 27780 28594 
28532 28207 28018 28611 
28131 26615 26545 27701 
26788 27215 27096 27868 
27494 27107 27342 27850 
27341 27135 27725 27872 
27373 27135 27569 27860 
27688 27486 28001 28179 
27759 27357 28183 28210 
27765 27762 28424 28240 
27529 27001 27564 27210 
26297 27778 28726 28002 
27258 29003 29098 28131 
27696 29386 29325 28683 
27819 29397 29179 28729 
28477 29097 29277 28694 
28970 28962 29536 28307 
29632 28409 30829 28458 
30957 27698 33307 27011 
32556 29253 34317 27628 
32583 31157 34346 27887 
31624 32915 34131 28688 
30853 34075 33962 29651 
30753 33690 34387 31456 
31116 32983 34043 33294 
32593 32863 33727 34023 
33495 33224 33274 34939 
34996 33923 33106 34097 
35149 34656 32690 32948 
34516 34447 33042 32608 
34363 34583 33283 32201 
33776 34329 33592 32769 
33905 34001 33775 33232 
33783 34177 34216 33985 
34151 34537 34649 35081 
33861 33884 33238 34374 
32646 32812 32315 33271 
32098 31725 31560 32830 
31450 31582 31108 32226 
31746 31387 31420 32347 
32048 31735 32264 32194 
32217 32195 32882 32416 
32648 33067 33253 33096 
33022 32936 33389 32905 
32904 33080 33060 33140 
32744 32719 32868 32927 
33026 33070 32732 33155 
33019 33177 33349 33505 
33616 33841 33503 33921 
33702 33939 34123 34303 
33962 34745 34850 35594 
34888 34779 34480 35595 
34533 35087 34447 35540 
34550 35125 34649 35886 
34817 35146 34270 35722 
34558 35129 34414 35724 
34830 35150 34253 35781 
34791 35383 34892 36219 
35387 36328 35975 37338 
36512 36721 36239 37404 
36576 36987 36508 37442 
36948 36818 36920 37460 
37123 37037 37141 37266 
37015 37416 37218 37427 
37034 37446 36995 37395 
37119 37252 37051 37110 
37454 38780 38348 38334 
38538 38127 38168 37969 
38017 37868 38012 37866 
37857 38075 37910 38987 
37825 38852 37945 37591 
37897 37785 37115 36258 
37614 36260 37047 34751 
38056 34913 36825 33716 
36976 37712 35643 33149 
34890 30909 34315 32683 
33522 31684 33270 30697 
31276 30228 30992 31513 
31756 31288 31438 34057 
34337 33952 34294 33449 
33526 33468 33839 33361 
33161 33345 33155 32919 
32663 36978 32874 32781 
32853 30799 32817 32781 
32813 31482 32806 30835 
30803 29919 30591 31187 
31193 30933 31181 33822 
33937 33928 34182 33827 
33462 33457 33794 33177 
33402 33339 33401 32943 
32898 36990 32878 32792 
32493 30777 32828 32502 
32477 31760 32782 30648 
30737 29902 30539 31157 
31208 30963 31496 33770 
34159 33943 34192 33474 
33486 33628 33797 33395 
33401 33381 33370 32922 
32897 36748 32885 32510 
32491 30781 32845 32493 
32478 31786 32510 30842 
30741 29911 30556 31207 
31229 30974 31228 33774 
33946 33922 34429 33454 
33454 33455 33535 33395 
33383 33336 33398 32909 
32898 36978 32835 32770 
32468 30790 32819 32776 
32474 31746 32508 30593 
30780 29934 30353 31185 
31196 30932 31189 34069 
33939 33943 34004 33423 
33450 33440 33036 33158 
33019 33300 31272 32898 
32695 36628 29225 32817 
31688 30148 29221 32500 
31003 30185 28912 30637 
30948 30367 29214 31130 
30167 29931 28669 33245 
28652 28482 28719 31690 
29034 28348 28524 30037 
29048 28362 28084 29508 
28608 27058 26966 28206 
27279 27290 27401 28540 
27607 27371 27296 28440 
27640 27367 27382 28157 
27623 27305 27700 28120 
27613 27311 27560 28110 
27611 27279 27647 28048 
27584 27283 27990 28272 
27574 26067 26935 26755 
26482 26914 27369 27518 
26753 27025 28021 27540 
27081 27590 28292 28010 
27488 28440 29022 28276 
27684 29269 29543 28389 
28001 29593 29808 28623 
28110 29668 29793 28929 
28797 28696 29281 27712 
29034 28327 30776 27790 
30422 28486 32617 27891 
32003 28890 33882 28246 
32396 30724 34039 28148 
32249 32521 33866 28740 
31859 33462 33195 29279 
30912 34074 33208 30197 
30774 33161 33757 32513 
30913 32532 33770 33843 
32464 32160 33901 34416 
33689 33135 33656 33956 
34507 34113 33234 33593 
34763 34857 33387 32662 
34818 34947 33390 32222 
34411 35173 33201 32153 
33777 35042 33694 33111 
33957 34940 34042 34052 
34041 34849 34219 34439 
34151 34404 33763 34480 
33558 33270 32754 34152 
32468 32526 32052 33295 
32043 31783 31224 32592 
31439 31219 31202 31940 
31454 31139 31818 32001 
32018 31730 32530 32367 
32594 32543 33061 32781 
32721 32648 32960 33052 
33101 32766 33099 33098 
33052 32703 32884 32752 
32674 32665 32838 32729 
32682 33060 33062 33145 
32905 33461 33829 33912 
33869 34101 34152 34360 
33927 34231 34417 34509 
34366 34669 34211 35098 
34260 34836 34200 35365 
34625 34925 34425 35270 
34674 34707 34390 35636 
34436 34724 34369 35460 
34452 35309 34842 36323 
35379 35279 34714 36273 
35277 35529 35406 36670 
35508 35822 35506 36873 
36129 36428 36205 36863 
36226 36731 36251 37241 
36716 36930 36727 37056 
36906 36840 36872 37066 
36801 38118 37877 38299 
38122 37764 37575 37826 
37779 37981 37744 37751 
37573 37551 37656 37650 
37556 37890 37675 37340 
37563 37591 37693 37306 
37513 37601 37346 37258 
37651 37621 37382 37368 
37706 40629 38097 38066 
38832 35787 37579 35479 
38653 34199 37032 32358 
34664 31212 33618 31957 
33348 31864 32726 34425 
35140 34260 35199 33898 
33951 33834 33952 33213 
33556 33343 33250 33151 
32959 36810 32708 32478 
32804 30757 32866 32769 
32502 31747 32828 30599 
30761 29888 30353 31214 
31217 30944 31188 33786 
33932 33932 34199 33425 
33458 33452 33515 33397 
33364 33340 33374 33145 
32902 36806 32855 32769 
32475 30735 32829 32500 
32499 31473 32785 30617 
30752 29900 30579 31163 
31169 30929 31201 33754 
34166 34166 34429 33454 
33476 33454 33799 33392 
33156 33341 33370 32928 
33143 36834 32890 32784 
32449 30735 32827 32507 
32477 31470 32808 30618 
30729 29896 30552 31173 
31520 31234 31212 33743 
34163 33931 34179 33454 
33484 33437 33524 33164 
33374 33346 33366 32904 
32908 36823 32876 32777 
32488 30735 32847 32493 
32481 31481 32773 30634 
30756 29879 30570 31155 
31214 30949 31229 33791 
33922 33961 34431 33456 
33476 33429 33492 33382 
33377 33342 33292 32922 
33107 36824 32639 32500 
32454 30737 31714 32785 
32554 31413 30319 30630 
30819 29886 30408 31186 
31194 30937 28906 33755 
31511 32845 28596 33596 
30507 30696 28936 33346 
29897 29855 29038 32249 
29815 28685 27774 29592 
28306 28542 27968 29228 
28330 28110 27599 29187 
28488 27898 27640 28585 
28135 27999 27566 28363 
28225 27606 27604 28391 
27902 27552 27646 28331 
27827 27762 28003 28299 
27781 26463 26614 27054 
26711 26969 27444 27699 
27148 26875 27770 27929 
27414 27419 27820 27777 
27517 27352 28087 27840 
27327 27951 28686 28268 
27706 28419 29023 28470 
27603 28804 29462 28728 
27801 28916 28827 27898 
27430 29344 29058 28534 
28285 29167 28858 28345 
28847 29020 28917 28498 
29695 28356 30036 28111 
30977 28457 31619 28091 
31640 28782 33549 28069 
32314 29866 34196 28096 
31879 32535 34933 27513 
31090 33913 34651 28728 
30786 33964 34616 30458 
31310 33600 34424 32490 
32243 32649 34086 33979 
33453 32882 33637 34558 
34258 33397 33006 34607 
34857 34050 33028 33819 
34539 34718 33050 32451 
34471 34822 32929 32257 
33921 34244 33361 32320 
33849 33979 33651 32691 
33894 34036 34110 33850 
34085 34411 34021 34182 
33729 34154 33872 34218 
33188 33190 33025 33686 
32463 31990 31765 33093 
31755 31756 31522 32613 
31443 31417 31781 32212 
31668 31661 31971 32584 
32342 32361 32499 32836 
32494 32796 33144 33060 
33033 33080 33297 32919 
33125 32906 32958 33137 
33027 33118 33034 33138 
32754 33094 32758 32969 
33125 33021 32958 33270 
33352 33566 33251 33704 
33416 33915 33534 34356 
33694 33932 33731 34618 
34139 34389 34137 34858 
34039 34569 33973 35075 
34202 35038 34549 35775 
35153 35044 34524 35749 
35164 35408 34860 35825 
35184 35250 34689 35999 
35415 35515 35013 36293 
35511 35839 35673 36506 
35822 36393 35817 36742 
36394 36680 36445 37210 
36710 37785 37584 38527 
37806 37564 37345 38149 
37892 37555 37372 37917 
37699 37511 37477 37739 
37686 37561 37496 37661 
37705 37586 37473 37258 
37668 37557 37427 37421 
37685 37537 37119 37002 
37644 38979 38401 38446 
38587 38303 37542 37849 
38143 38969 37391 36503 
39192 34809 37778 34408 
36908 33612 35571 35259 
36578 35383 36148 34230 
35168 34040 34811 33506 
34143 33651 34147 33394 
33264 37239 33312 32855 
32719 30822 33096 32830 
32847 31774 32674 30611 
30820 29908 30421 31223 
31491 30952 31215 34057 
33934 33926 34208 33428 
33473 33457 33526 33157 
33371 33354 33381 32903 
32907 36826 32866 32775 
32483 30742 32831 32492 
32486 31470 32789 30641 
30755 29891 30576 31159 
31194 30938 31209 34054 
33924 33954 34194 33444 
33484 33436 33793 33381 
33388 33346 33368 32915 
33136 36828 32894 32503 
32510 30729 32840 32511 
32467 31755 32780 30611 
30746 29880 30558 31178 
31501 30967 31489 33742 
34125 34175 34421 33451 
33488 33432 33520 33160 
33383 33337 33381 32900 
32904 36834 32880 32789 
32486 30756 32849 32497 
32491 31482 32786 30619 
30746 29902 30341 31190 
31205 30931 31156 33741 
33925 33924 34177 33489 
33455 33429 33816 33384 
33394 33338 33354 32927 
33132 36839 32879 32497 
32769 30743 32818 32777 
32463 31486 32485 30837 
30462 29908 30566 31219 
31501 30953 31170 33774 
34072 34074 32404 33448 
33300 33239 30095 33362 
31875 32612 29394 33119 
30443 30283 28132 32466 
29466 29592 28340 32318 
29106 29162 28451 31025 
29108 29196 28068 30678 
28812 28748 28187 28713 
28578 28479 27840 28575 
28690 28075 28013 28605 
28295 28185 27990 28628 
28145 26622 26539 27549 
26876 27237 27103 27822 
27133 27074 27515 28185 
27374 27422 27767 28190 
27654 27420 27578 27881 
27658 27451 27944 28164 
27698 27280 27800 27894 
27720 27672 28255 28184 
27753 26544 27477 26810 
26494 27758 28049 27671 
26864 28673 28972 28200 
27329 29486 29173 28513 
28016 29737 29490 28364 
28308 29530 29445 28371 
29101 28910 29814 28310 
30202 28609 30900 28473 
31423 27831 33545 27404 
32475 29573 34417 27932 
32614 31689 34040 28421 
31641 33189 33415 28859 
31099 33734 33235 30123 
30377 33589 33458 31708 
31047 32797 33742 33281 
31979 32155 34055 34053 
33245 33130 33718 34418 
35120 34052 33217 33453 
35010 34531 32909 32742 
34931 34775 33075 32564 
34256 34719 32968 32532 
34114 34680 33190 32873 
33884 34190 33867 33278 
33699 34225 34337 34038 
34139 34922 34853 35019 
34131 33947 33885 34465 
32969 33131 32394 33854 
32368 31933 31773 33055 
31828 31408 31119 32550 
31466 31596 31580 32131 
31695 31632 32121 32209 
32131 32367 32797 32493 
32861 33070 33605 33323 
33371 33297 33591 33192 
33286 32968 32989 33387 
33065 32750 32892 33320 
32672 32672 32790 33399 
33030 33129 32755 33614 
33306 33227 33162 33677 
33642 33862 33815 34312 
33687 34682 34276 34982 
34593 34535 34240 35335 
34617 34905 34266 35226 
34604 34715 34401 35594 
34633 34752 34320 35658 
34641 34749 33970 35651 
34678 34752 34039 35477 
34859 34967 34645 35958 
34981 36424 35927 37005 
36265 36316 36219 37235 
36716 36563 36617 37047 
36573 36755 36545 37108 
36792 37004 36755 37441 
37217 37398 37125 37392 
37017 37446 37200 37392 
37095 37267 37037 37427 
37465 38536 38337 38347 
38732 38136 38195 38161 
38438 38228 37886 37842 
37859 38042 37906 39016 
37838 39092 37614 37835 
38000 38261 37272 37140 
37977 36745 37055 35233 
38271 34952 37191 33999 
37580 37972 36829 33292 
35264 30964 35015 32755 
34081 31673 34052 30683 
31490 30274 31248 31514 
31796 31239 31792 33770 
34349 33932 34622 33484 
33803 33465 33892 33402 
33178 33356 33401 32926 
32910 36837 32671 32775 
32510 30730 32852 32499 
32486 31483 32772 30628 
30762 29875 30570 31166 
31219 30975 31491 33787 
33927 33920 34182 33449 
33465 33455 33523 33400 
33383 33340 33388 32898 
33148 36831 32870 32784 
32472 30733 32838 32505 
32511 31473 32798 30601 
30752 29919 30350 31205 
31489 30953 31170 33784 
33923 34168 34202 33431 
33456 33438 33516 33399 
33371 33346 33373 32922 
32896 36830 32857 32504 
32486 30749 32828 32486 
32481 31475 32788 30633 
30766 29888 30582 31167 
31199 30941 31210 33832 
34165 34149 34185 33810 
33450 33454 33511 33188 
33390 33336 33383 32921 
32905 36849 32895 32797 
32500 30728 32831 32507 
32468 31482 32493 30824 
30739 29906 30354 31498 
31509 30972 31203 33740 
34175 34163 34311 33472 
33421 33218 33212 33393 
33316 33402 32269 32935 
32761 37176 29418 32479 
32343 30200 29445 32815 
31612 30642 29245 30615 
30849 30163 29289 31181 
30837 30561 29019 33459 
29019 28386 28564 32890 
28892 28726 28376 30338 
29045 28698 28454 29697 
28994 27452 26870 28427 
27727 27676 27503 28537 
27592 27671 27319 28351 
27992 27703 27764 28302 
27957 27386 27564 28498 
27924 27384 27967 28487 
27960 27657 27788 28440 
27947 27671 27866 28114 
27647 26448 26822 27195 
26637 27005 27705 27323 
26758 27079 27985 27570 
27091 27740 28153 28008 
27482 28217 28762 28190 
27379 28931 29208 28524 
27612 29352 29520 28766 
28174 29575 29542 28610 
28493 28410 28392 27685 
28039 28306 29395 27814 
29629 28466 31509 27797 
31204 28763 33297 27865 
32205 30068 33981 28176 
32561 31717 33986 28101 
31735 33209 33669 28397 
31285 34138 33681 29313 
30652 33876 34193 31474 
31350 32693 33953 33556 
32820 32465 33873 34598 
33737 32965 33222 34481 
34435 33758 32972 34134 
34857 34605 33137 32966 
34600 34827 32944 32236 
33975 34493 33365 31897 
33669 34558 33836 32550 
34107 34588 34172 33550 
33988 34662 34220 34192 
33969 34177 34175 34545 
33533 33534 33315 34261 
32753 32875 32382 33532 
32295 32102 31749 33075 
31869 31463 31584 32595 
31776 31518 31754 32306 
31651 31724 32137 32525 
32175 32217 32650 32824 
32825 32829 33143 33078 
33046 33026 33132 32899 
33048 32720 32679 33052 
32673 32876 32787 32689 
32895 32686 32660 32762 
33056 33250 33550 33610 
33446 33908 33712 34122 
33756 34313 33981 34279 
34011 34299 34383 34900 
34423 34481 34403 34974 
34292 34858 34410 35406 
34625 34703 34416 35303 
34665 34706 34390 35636 
34438 35298 34860 36249 
35339 35253 34927 36459 
35233 35475 35041 36319 
35693 35745 35661 36550 
35813 36375 36098 36801 
36423 36682 36425 37200 
36643 36882 36686 37033 
36879 36829 36882 37392 
36799 38110 38174 38339 
38115 37807 37576 38145 
37862 38004 37579 37628 
37619 37623 37706 37507 
37606 37946 37707 37680 
37590 37631 37680 37327 
37756 37604 37348 37305 
37701 37625 37393 37738 
37709 40310 38035 37885 
38821 36875 37642 35590 
38840 34911 37078 32263 
34736 31451 33718 31896 
33207 31695 32912 34364 
34976 34288 35036 33871 
34003 33906 33943 33217 
33411 33166 33647 32962 
33281 37148 32749 32803 
32803 30762 32887 32503 
32803 31485 32843 30634 
30749 29888 30365 31214 
31228 31236 31201 33733 
34169 33933 34426 33455 
33486 33442 33793 33399 
33372 33347 33363 32923 
32896 36830 32641 32503 
32508 30721 32846 32500 
32467 31747 32771 30615 
30751 29879 30567 31169 
31492 30956 31490 33781 
34170 33936 34424 33466 
33459 33426 33805 33386 
33396 33335 33361 32922 
33132 36845 32876 32509 
32483 30750 32832 32777 
32465 31480 32792 30598 
30745 29899 30344 31202 
31493 30938 31197 33788 
33944 33928 34192 33439 
33459 33453 33520 33406 
33376 33328 33379 33149 
32919 36837 32857 32780 
32475 30737 32824 32486 
32480 31461 32782 30621 
30760 29894 30581 31170 
31168 30936 31208 33749 
34169 34172 34187 33461 
33482 33464 33525 33386 
33392 33347 33318 32936 
33125 36843 32790 32789 
32439 30721 32213 32502 
32635 31415 31218 30656 
30789 29862 30757 31154 
31202 30964 29998 33726 
32017 33138 28376 33631 
30389 31326 28595 33372 
30267 30285 28802 32859 
29964 28637 27608 30815 
28733 28713 27801 29444 
28743 28516 27931 29160 
28362 28274 27960 28653 
28451 27811 27599 28383 
28079 27953 27910 28729 
28282 27639 27919 28409 
28200 27582 27977 28334 
27857 26270 26563 27408 
26571 26953 27101 27741 
26875 26856 27519 27607 
27430 27026 27538 27926 
27497 27118 27944 27960 
27302 27336 28209 27842 
27675 27920 28456 28181 
27760 28090 28556 28040 
27559 28036 28445 27499 
26564 28895 28803 27884 
27672 29311 28924 28229 
28438 28839 29144 28055 
29315 28788 30205 28240 
31091 28689 31992 28256 
32139 29241 33498 28050 
32745 30805 34194 28452 
32510 33051 34373 27767 
31114 33682 33885 28926 
30433 33508 33887 31047 
30432 32712 33775 32875 
31427 32140 33767 34100 
33056 32420 33837 34212 
34108 33250 33574 34116 
34462 34367 33350 33391 
34854 35270 33013 32215 
34781 35057 32993 32319 
34427 34852 33327 32602 
33750 34397 33562 33316 
33707 34310 33766 33928 
34120 34403 34329 34527 
34119 34024 34128 34875 
33436 33463 33405 34377 
32718 32593 32105 33245 
31688 31717 31427 32860 
31481 31745 31434 32533 
31797 31827 31738 32236 
32115 31889 32195 32427 
32545 32560 32882 32883 
32893 32886 32909 33030 
33085 33054 32956 33041 
33071 32764 33058 32742 
32745 32723 32728 33079 
33080 33134 32921 33387 
33308 33196 33218 33810 
33617 33820 33526 34000 
33896 34116 33732 34568 
34078 34046 34094 34534 
33940 34430 34154 34709 
34027 34798 34676 35914 
34877 34795 34615 35570 
34526 35094 34563 35845 
34476 35077 34296 35932 
34871 35022 34547 36157 
35175 35585 35169 36371 
35265 35897 35591 36637 
35925 35992 35759 36875 
36031 37361 37446 38040 
37722 37271 37061 37590 
37485 37296 37382 37556 
37500 37330 37425 37702 
37293 37694 37503 37701 
37328 37726 37272 37341 
37307 37725 37282 37313 
37369 37743 37324 37273 
37665 39012 38556 38562 
39013 38317 38182 38101 
38109 38514 37917 37357 
38458 37433 38768 34555 
39197 34917 36773 35546 
37761 35830 36680 34562 
36463 34612 35434 33817 
34918 33796 34352 33386 
33911 37064 33183 32875 
32896 30839 33124 32797 
32696 31805 32676 30617 
30847 29914 30418 31226 
31560 31237 31517 33839 
34174 34169 34198 33523 
33491 33439 33793 33208 
33375 33346 33375 32933 
32915 36843 32876 32778 
32485 30753 32846 32769 
32495 31478 32783 30636 
30772 29901 30587 31173 
31177 30917 31177 33755 
34171 33921 34207 33456 
33486 33438 33521 33162 
33366 33368 33385 32901 
32912 36835 32860 32506 
32477 30749 32836 32790 
32472 31456 32801 30598 
30791 29910 30581 31188 
31202 30917 31178 34062 
34157 33924 34207 33415 
33481 33430 33802 33406 
33354 33356 33357 32921 
32910 36849 32895 32489 
32509 30739 32842 32504 
32490 31748 32508 30634 
30728 29885 30566 31165 
31206 30949 31497 34055 
33932 33946 34426 33452 
33465 33442 33803 33384 
33398 33329 33359 32916 
33142 36835 32838 32781 
32485 30724 32809 32487 
32478 31482 32439 30593 
30445 29900 30579 31226 
31516 31233 31165 33811 
33791 34119 31299 33518 
33395 33272 30037 33207 
32376 32887 29337 32941 
31009 30836 28440 32485 
29361 30072 28739 32213 
29360 29328 28404 31039 
29382 29446 28528 30923 
29284 28943 28084 28870 
29001 28352 28218 29045 
28579 28433 27889 28971 
28398 28265 27848 28950 
28496 26938 26898 27775 
27152 27014 27458 28189 
27320 27429 27697 28171 
27663 27478 27619 28213 
27696 27467 27983 28194 
27751 27306 27890 28244 
27556 27665 28285 28246 
27554 27540 28452 28248 
27555 26949 27756 27180 
26307 27596 28542 27627 
27234 28721 28866 28252 
27655 29530 29538 28366 
27801 29641 29382 28559 
28306 29792 29543 28604 
28817 29158 29559 28757 
29433 28979 30086 28352 
30391 27670 32523 27114 
31837 28465 33738 27905 
32151 29909 34196 27872 
31909 31944 34124 28510 
31529 33661 33670 29060 
30676 34159 34060 30656 
30696 33463 33939 32638 
31796 32713 34082 33912 
33028 32407 33808 34713 
34514 33289 33006 34309 
34810 34116 32683 33390 
34900 34582 32889 32400 
34257 34540 33054 32259 
34098 34681 33288 32374 
33527 34181 33642 32696 
33525 34408 34124 33796 
33730 34922 34833 35190 
33966 34382 34113 34940 
33238 33206 32734 34315 
32393 32247 32053 33552 
32072 31655 31367 32766 
31659 31783 31752 32467 
32083 31712 31940 32399 
32142 32358 32479 32805 
32774 32662 33173 32970 
32963 32928 33181 33338 
32920 32915 32904 33330 
32760 32742 32828 33000 
32640 32662 32480 33299 
32710 33068 32684 33233 
32964 33156 33355 33836 
33589 33810 33794 33942 
33677 34664 34607 34954 
34666 34817 34606 35040 
34622 34923 34614 35286 
34448 34755 34588 35468 
34508 35079 34271 35887 
34540 35116 34182 35918 
34542 35073 34383 35940 
34864 35181 34572 35811 
35117 35968 35500 37097 
36392 36410 35810 37203 
36231 36684 36380 36997 
36643 36583 36340 37046 
36874 36827 36554 37110 
36789 37213 36935 37013 
36843 37017 36944 37231 
37190 37088 36752 37158 
37013 38333 38227 38027 
38325 38199 37585 37695 
37842 37774 37734 37690 
37893 37951 37367 37844 
37898 38244 37333 37471 
37740 37512 37003 37690 
37671 38243 36775 36206 
37678 36495 36509 34540 
